# first row is Sampling Rate, rows after first line are [µV]
513.188
175.434
198.517
221.729
244.811
267.494
289.488
310.475
330.119
348.117
364.197
378.147
389.82
399.132
406.065
410.669
413.052
413.338
411.647
408.102
402.831
395.983
387.733
378.297
367.924
356.875
345.419
333.78
322.133
310.613
299.307
288.267
277.515
267.057
256.896
247.034
237.473
228.208
219.228
210.492
201.937
193.478
185.016
176.48
167.828
159.04
150.117
141.075
131.944
122.762
113.583
104.448
95.395
86.455
77.655
69.031
60.629
52.497
44.693
37.258
30.219
23.596
17.399
11.628
6.281
1.343
-3.21
-7.397
-11.234
-14.736
-17.916
-20.787
-23.37
-25.684
-27.749
-29.584
-31.208
-32.637
-33.889
-34.98
-35.922
-36.728
-37.408
-37.971
-38.43
-38.797
-39.085
-39.306
-39.469
-39.587
-39.669
-39.726
-39.766
-39.795
-39.82
-39.847
-39.881
-39.928
-39.99
-40.072
-40.176
-40.305
-40.462
-40.649
-40.868
-41.119
-41.405
-41.725
-42.082
-42.475
-42.904
-43.37
-43.873
-44.412
-44.986
-45.596
-46.239
-46.913
-47.617
-48.35
-49.107
-49.887
-50.687
-51.504
-52.335
-53.177
-54.026
-54.88
-55.734
-56.585
-57.429
-58.262
-59.081
-59.879
-60.654
-61.4
-62.113
-62.789
-63.424
-64.013
-64.552
-65.037
-65.464
-65.83
-66.132
-66.368
-66.535
-66.633
-66.661
-66.62
-66.51
-66.333
-66.091
-65.787
-65.426
-65.012
-64.551
-64.049
-63.511
-62.946
-62.363
-61.77
-61.176
-60.592
-60.028
-59.495
-59.006
-58.576
-58.217
-57.943
-57.768
-57.708
-57.775
-57.983
-58.34
-58.856
-59.539
-60.396
-61.436
-62.666
-64.092
-65.72
-67.552
-69.59
-71.834
-74.278
-76.91
-79.718
-82.689
-85.816
-89.1
-92.535
-96.115
-99.832
-103.672
-107.619
-111.646
-115.714
-119.77
-123.764
-127.649
-131.388
-134.957
-138.323
-141.46
-144.327
-146.869
-149.047
-150.826
-152.173
-153.066
-153.514
-153.558
-153.283
-152.813
-152.254
-151.686
-151.19
-150.853
-150.772
-151.049
-151.807
-153.127
-155.12
-157.994
-161.781
-166.349
-171.384
-176.233
-180.225
-182.886
-183.565
-181.515
-176.635
-169.198
-160.049
-151.067
-143.75
-139.01
-138.169
-142.242
-150.915
-163.233
-176.86
-187.418
-191.148
-184.875
-164.728
-127.696
-72.517
0.997
90.65
190.881
295.697
398.614
491.182
564.899
612.339
626.673
605.834
553.896
474.251
369.623
238.283
74.897
-114.538
-311.598
-485.961
-605.302
-657.253
-651.294
-612.773
-569.179
-533.626
-504.723
-474.258
-436.976
-394.55
-352.828
-317.627
-290.659
-270.707
-256.452
-246.264
-238.46
-231.63
-223.988
-214.67
-203.988
-192.268
-179.505
-165.521
-150.557
-135.497
-121.727
-110.125
-100.807
-93.677
-88.66
-85.932
-85.561
-87.137
-89.883
-93.14
-96.567
-100.016
-103.412
-106.514
-109.01
-110.714
-111.593
-111.696
-111.055
-109.658
-107.461
-104.465
-100.743
-96.401
-91.559
-86.297
-80.672
-74.736
-68.567
-62.277
-55.986
-49.806
-43.809
-38.038
-32.525
-27.29
-22.344
-17.68
-13.273
-9.08
-5.065
-1.203
2.521
6.114
9.595
12.991
16.333
19.655
22.977
26.308
29.655
33.017
36.387
39.753
43.091
46.373
49.574
52.673
55.65
58.489
61.173
63.679
65.988
68.08
69.933
71.529
72.849
73.877
74.598
74.996
75.062
74.787
74.163
73.183
71.84
70.127
68.039
65.575
62.731
59.509
55.909
51.936
47.596
42.901
37.86
32.487
26.798
20.81
14.542
8.013
1.245
-5.738
-12.913
-20.256
-27.741
-35.341
-43.031
-50.783
-58.569
-66.363
-74.137
-81.865
-89.522
-97.082
-104.524
-111.823
-118.958
-125.91
-132.659
-139.187
-145.477
-151.515
-157.287
-162.781
-167.988
-172.9
-177.511
-181.816
-185.815
-189.507
-192.892
-195.973
-198.755
-201.243
-203.443
-205.366
-207.02
-208.417
-209.57
-210.491
-211.195
-211.696
-212.011
-212.154
-212.141
-211.987
-211.707
-211.317
-210.831
-210.265
-209.633
-208.948
-208.225
-207.477
-206.715
-205.951
-205.196
-204.46
-203.751
-203.078
-202.448
-201.867
-201.34
-200.873
-200.468
-200.129
-199.856
-199.651
-199.512
-199.438
-199.425
-199.469
-199.566
-199.71
-199.895
-200.114
-200.36
-200.624
-200.899
-201.178
-201.45
-201.708
-201.942
-202.143
-202.304
-202.416
-202.471
-202.459
-202.374
-202.207
-201.952
-201.602
-201.149
-200.587
-199.909
-199.111
-198.187
-197.134
-195.948
-194.626
-193.166
-191.569
-189.835
-187.965
-185.961
-183.826
-181.565
-179.183
-176.685
-174.08
-171.374
-168.576
-165.693
-162.737
-159.717
-156.643
-153.527
-150.379
-147.211
-144.035
-140.864
-137.711
-134.589
-131.511
-128.492
-125.548
-122.694
-119.944
-117.312
-114.814
-112.463
-110.271
-108.249
-106.405
-104.746
-103.28
-102.013
-100.95
-100.095
-99.448
-99.015
-98.796
-98.794
-99.006
-99.419
-100.025
-100.812
-101.773
-102.907
-104.207
-105.655
-107.238
-108.942
-110.749
-112.639
-114.577
-116.499
-118.35
-120.074
-121.627
-122.984
-124.109
-124.958
-125.496
-125.673
-125.462
-124.865
-123.869
-122.455
-120.636
-118.432
-115.92
-113.263
-110.595
-108.036
-105.691
-103.602
-101.847
-100.539
-99.764
-99.638
-100.24
-101.547
-103.633
-106.636
-110.478
-114.941
-119.518
-123.295
-125.498
-125.52
-122.638
-116.386
-106.752
-94.082
-79.627
-65.312
-52.803
-43.743
-39.553
-40.526
-46.028
-54.467
-62.359
-65.534
-60.051
-41.015
-4.419
51.196
126.328
217.226
317.062
421.468
523.271
617.778
701.45
761.027
787.174
769.857
700.202
589.552
450.647
297.26
147.489
4.927
-127.563
-242.427
-336.248
-403.511
-440.92
-451.448
-439.435
-409.127
-365.094
-313.168
-259.382
-208.53
-164.107
-127.348
-97.737
-75.443
-60.934
-52.689
-48.315
-45.57
-42.015
-36.621
-29.615
-20.581
-8.746
5.62
21.713
38.345
53.703
66.912
77.965
86.616
92.607
95.933
96.688
95.416
93.132
90.427
87.538
84.692
81.999
79.687
78.089
77.316
77.314
78.053
79.505
81.691
84.686
88.469
92.949
98.022
103.56
109.49
115.771
122.334
129.094
135.932
142.71
149.348
155.804
162.047
168.06
173.822
179.314
184.557
189.592
194.454
199.18
203.788
208.281
212.676
216.998
221.275
225.545
229.825
234.119
238.428
242.751
247.08
251.406
255.704
259.943
264.094
268.135
272.043
275.801
279.387
282.776
285.946
288.873
291.534
293.91
295.98
297.724
299.126
300.171
300.845
301.141
301.049
300.56
299.666
298.36
296.637
294.496
291.934
288.952
285.554
281.746
277.536
272.936
267.959
262.619
256.934
250.923
244.606
238.005
231.143
224.045
216.738
209.247
201.601
193.827
185.956
178.015
170.035
162.042
154.067
146.135
138.275
130.511
122.87
115.376
108.052
100.919
93.997
87.307
80.865
74.687
68.787
63.177
57.867
52.865
48.18
43.814
39.773
36.057
32.668
29.603
26.859
24.431
22.313
20.496
18.971
17.727
16.752
16.033
15.557
15.311
15.28
15.451
15.808
16.337
17.024
17.852
18.806
19.872
21.035
22.28
23.594
24.961
26.371
27.809
29.264
30.724
32.176
33.609
35.012
36.374
37.686
38.939
40.125
41.239
42.274
43.228
44.099
44.885
45.587
46.205
46.74
47.192
47.562
47.849
48.056
48.184
48.232
48.204
48.105
47.938
47.714
47.439
47.122
46.771
46.391
45.989
45.572
45.149
44.72
44.295
43.882
43.492
43.147
42.861
42.64
42.484
42.388
42.335
42.315
42.317
42.319
42.307
42.282
42.251
42.241
42.284
42.394
42.577
42.823
43.119
43.478
43.915
44.449
45.118
45.954
46.992
48.298
49.909
51.827
54.029
56.441
58.969
61.552
64.142
66.707
69.222
71.64
73.913
76.003
77.852
79.401
80.576
81.265
81.381
80.897
79.819
78.208
76.16
73.734
70.977
67.943
64.663
61.18
57.534
53.734
49.805
45.796
41.771
37.831
34.061
30.504
27.187
24.121
21.29
18.702
16.366
14.267
12.411
10.813
9.491
8.493
7.851
7.558
7.59
7.916
8.491
9.276
10.211
11.176
12.04
12.685
12.996
12.905
12.374
11.326
9.679
7.357
4.275
0.413
-4.188
-9.573
-15.823
-22.837
-30.309
-37.622
-43.838
-48.118
-49.793
-48.17
-42.69
-33.28
-20.483
-5.679
9.017
21.574
30.311
33.921
31.88
24.781
14.777
5.542
1.498
7.582
28.732
68.461
129.01
208.894
301.303
400.72
502.386
603.358
704.655
795.688
858.146
874.646
828.35
725.027
584.591
423.381
258.748
92.712
-74.48
-227.7
-351.898
-428.116
-450.007
-432.78
-393.132
-349.778
-312.063
-276.404
-242.338
-209.248
-178.121
-154.105
-138.084
-128.152
-122.448
-117.386
-109.989
-99.477
-85.593
-68.638
-49.736
-29.951
-10.248
8.119
23.983
36.82
46.479
53.083
57.059
58.749
58.424
56.458
53.265
49.197
44.566
39.634
34.584
29.641
25.089
21.178
18.099
15.968
14.821
14.66
15.487
17.284
19.997
23.545
27.819
32.704
38.099
43.894
49.972
56.203
62.435
68.54
74.439
80.089
85.469
90.564
95.353
99.831
104.02
107.948
111.638
115.103
118.353
121.42
124.362
127.247
130.135
133.061
136.029
139.033
142.078
145.182
148.366
151.629
154.959
158.353
161.833
165.433
169.163
172.984
176.812
180.564
184.182
187.633
190.903
193.969
196.789
199.313
201.497
203.319
204.75
205.743
206.219
206.085
205.297
203.872
201.879
199.383
196.419
193.002
189.144
184.872
180.225
175.236
169.921
164.287
158.357
152.178
145.829
139.395
132.923
126.416
119.839
113.168
106.403
99.549
92.617
85.601
78.501
71.329
64.121
56.913
49.729
42.575
35.441
28.316
21.208
14.142
7.158
0.287
-6.448
-13.026
-19.425
-25.616
-31.581
-37.311
-42.81
-48.086
-53.138
-57.96
-62.546
-66.889
-70.992
-74.857
-78.491
-81.897
-85.081
-88.052
-90.818
-93.393
-95.787
-98.006
-100.055
-101.941
-103.671
-105.252
-106.695
-108.006
-109.193
-110.265
-111.232
-112.104
-112.889
-113.597
-114.234
-114.808
-115.327
-115.797
-116.224
-116.616
-116.978
-117.315
-117.633
-117.938
-118.233
-118.524
-118.814
-119.107
-119.405
-119.712
-120.028
-120.356
-120.696
-121.05
-121.417
-121.799
-122.193
-122.601
-123.021
-123.452
-123.893
-124.34
-124.792
-125.244
-125.693
-126.136
-126.568
-126.985
-127.382
-127.756
-128.1
-128.412
-128.684
-128.913
-129.093
-129.218
-129.284
-129.286
-129.218
-129.077
-128.857
-128.556
-128.17
-127.695
-127.131
-126.474
-125.723
-124.877
-123.936
-122.9
-121.771
-120.548
-119.235
-117.834
-116.35
-114.788
-113.153
-111.45
-109.688
-107.873
-106.016
-104.126
-102.211
-100.282
-98.351
-96.43
-94.53
-92.663
-90.842
-89.081
-87.394
-85.797
-84.305
-82.932
-81.692
-80.6
-79.669
-78.911
-78.334
-77.945
-77.751
-77.759
-77.976
-78.411
-79.066
-79.946
-81.051
-82.378
-83.928
-85.691
-87.655
-89.806
-92.131
-94.621
-97.279
-100.108
-103.098
-106.242
-109.524
-112.921
-116.41
-119.957
-123.512
-127.025
-130.45
-133.742
-136.875
-139.818
-142.529
-144.957
-147.034
-148.696
-149.904
-150.616
-150.809
-150.504
-149.727
-148.544
-147.058
-145.351
-143.518
-141.689
-139.982
-138.534
-137.493
-136.969
-137.14
-138.263
-140.435
-143.595
-147.485
-151.565
-155.328
-158.449
-160.47
-160.769
-159.037
-155.399
-150.523
-145.788
-142.433
-141.008
-141.952
-145.874
-152.865
-162.156
-171.994
-179.265
-180.632
-173.734
-156.35
-125.958
-80.594
-19.33
57.276
146.494
244.126
345.878
446.637
539.804
617.953
673.582
700.203
695.3
660.68
598.458
510.17
393.001
242.371
62.883
-129.324
-305.218
-434.087
-501.014
-511.012
-486.544
-452.202
-422.142
-398.279
-373.813
-344.858
-312.723
-281.392
-256.589
-240.069
-229.873
-223.734
-218.348
-210.729
-199.91
-185.576
-167.894
-147.899
-126.606
-104.867
-83.912
-65.057
-49.002
-36.068
-26.252
-19.146
-14.437
-11.911
-11.235
-12.047
-13.998
-16.733
-19.976
-23.58
-27.359
-31.101
-34.566
-37.445
-39.528
-40.711
-40.935
-40.196
-38.49
-35.815
-32.208
-27.761
-22.585
-16.808
-10.544
-3.864
3.144
10.375
17.703
24.965
32.048
38.898
45.477
51.77
57.763
63.44
68.812
73.924
78.816
83.524
88.074
92.474
96.745
100.919
105.033
109.133
113.248
117.388
121.558
125.76
129.991
134.247
138.509
142.75
146.944
151.071
155.117
159.067
162.905
166.608
170.156
173.525
176.698
179.655
182.377
184.845
187.039
188.944
190.546
191.834
192.795
193.416
193.685
193.592
193.125
192.278
191.044
189.416
187.392
184.972
182.158
178.954
175.367
171.404
167.077
162.396
157.376
152.032
146.38
140.438
134.227
127.766
121.078
114.188
107.118
99.896
92.546
85.097
77.576
70.011
62.43
54.86
47.329
39.864
32.492
25.24
18.131
11.19
4.44
-2.098
-8.404
-14.461
-20.252
-25.763
-30.983
-35.901
-40.507
-44.795
-48.759
-52.396
-55.704
-58.682
-61.331
-63.655
-65.659
-67.348
-68.73
-69.816
-70.616
-71.142
-71.408
-71.427
-71.217
-70.792
-70.171
-69.371
-68.41
-67.309
-66.085
-64.758
-63.348
-61.872
-60.35
-58.799
-57.237
-55.679
-54.143
-52.644
-51.196
-49.812
-48.506
-47.289
-46.173
-45.167
-44.28
-43.52
-42.891
-42.4
-42.049
-41.842
-41.779
-41.86
-42.083
-42.447
-42.947
-43.577
-44.333
-45.206
-46.188
-47.27
-48.441
-49.693
-51.012
-52.388
-53.808
-55.26
-56.732
-58.211
-59.683
-61.136
-62.556
-63.931
-65.248
-66.495
-67.66
-68.732
-69.699
-70.553
-71.284
-71.883
-72.344
-72.658
-72.821
-72.828
-72.675
-72.36
-71.882
-71.24
-70.436
-69.473
-68.353
-67.082
-65.664
-64.106
-62.416
-60.602
-58.674
-56.641
-54.517
-52.311
-50.039
-47.713
-45.349
-42.962
-40.568
-38.182
-35.821
-33.5
-31.238
-29.049
-26.95
-24.957
-23.086
-21.355
-19.78
-18.377
-17.163
-16.151
-15.355
-14.789
-14.463
-14.384
-14.557
-14.985
-15.672
-16.62
-17.831
-19.305
-21.04
-23.033
-25.281
-27.776
-30.505
-33.451
-36.595
-39.917
-43.405
-47.049
-50.838
-54.759
-58.798
-62.941
-67.166
-71.439
-75.718
-79.944
-84.061
-88.013
-91.756
-95.245
-98.439
-101.298
-103.77
-105.811
-107.384
-108.447
-108.967
-108.923
-108.327
-107.234
-105.742
-103.974
-102.044
-100.046
-98.087
-96.303
-94.83
-93.802
-93.356
-93.549
-94.496
-96.416
-99.348
-103.158
-107.5
-111.691
-115.073
-117.171
-117.323
-114.785
-109.355
-101.219
-91.254
-81.217
-72.546
-66.35
-63.957
-66.294
-73.13
-83.252
-93.955
-101.173
-101.006
-89.392
-61.985
-15.326
50.197
130.407
220.323
315.358
416.656
527.453
642.562
747.441
818.681
834.257
786.071
680.852
534.847
362.812
176.748
-10.843
-183.619
-320.434
-407.344
-445.352
-450.324
-442.992
-435.909
-429.594
-415.64
-388.228
-349.386
-306.426
-267.539
-235.986
-211.422
-192.74
-178.711
-169.059
-162.391
-155.55
-146.734
-135.675
-122.481
-107.855
-92.033
-74.467
-55.942
-38.432
-23.122
-10.619
-1.061
6.078
10.922
13.092
12.823
10.858
7.82
4.326
0.687
-3.154
-7.061
-10.718
-13.849
-16.229
-17.746
-18.411
-18.212
-17.091
-15.02
-12.002
-8.113
-3.489
1.744
7.469
13.614
20.126
26.925
33.908
40.944
47.891
54.664
61.219
67.518
73.541
79.268
84.689
89.832
94.749
99.479
104.053
108.487
112.78
116.953
121.031
125.046
129.033
133.011
136.985
140.959
144.933
148.9
152.853
156.766
160.61
164.358
167.992
171.493
174.847
178.037
181.041
183.841
186.419
188.757
190.839
192.65
194.174
195.4
196.316
196.915
197.189
197.135
196.745
196.015
194.938
193.513
191.738
189.613
187.139
184.318
181.158
177.665
173.849
169.721
165.295
160.583
155.602
150.368
144.899
139.215
133.335
127.28
121.072
114.732
108.283
101.747
95.147
88.505
81.843
75.182
68.545
61.952
55.422
48.977
42.635
36.414
30.331
24.402
18.643
13.068
7.689
2.518
-2.436
-7.163
-11.657
-15.912
-19.924
-23.691
-27.21
-30.483
-33.51
-36.294
-38.839
-41.149
-43.23
-45.088
-46.73
-48.164
-49.398
-50.44
-51.299
-51.985
-52.506
-52.873
-53.094
-53.18
-53.139
-52.981
-52.716
-52.354
-51.903
-51.374
-50.776
-50.118
-49.409
-48.658
-47.875
-47.066
-46.24
-45.403
-44.562
-43.721
-42.885
-42.059
-41.246
-40.45
-39.675
-38.924
-38.199
-37.503
-36.839
-36.207
-35.61
-35.049
-34.526
-34.042
-33.6
-33.2
-32.846
-32.538
-32.279
-32.069
-31.91
-31.8
-31.739
-31.726
-31.758
-31.832
-31.943
-32.087
-32.263
-32.467
-32.697
-32.951
-33.228
-33.527
-33.847
-34.187
-34.542
-34.907
-35.276
-35.641
-35.994
-36.328
-36.635
-36.909
-37.143
-37.333
-37.475
-37.565
-37.593
-37.548
-37.414
-37.179
-36.836
-36.383
-35.826
-35.176
-34.452
-33.676
-32.872
-32.057
-31.24
-30.414
-29.563
-28.668
-27.706
-26.667
-25.558
-24.379
-23.131
-21.807
-20.395
-18.866
-17.182
-15.292
-13.141
-10.691
-7.93
-4.878
-1.587
1.871
5.404
8.939
12.422
15.804
19.04
22.081
24.878
27.366
29.47
31.1
32.149
32.533
32.199
31.136
29.378
26.989
24.063
20.681
16.905
12.795
8.401
3.77
-1.052
-6.018
-11.082
-16.173
-21.195
-26.072
-30.741
-35.169
-39.353
-43.293
-46.999
-50.479
-53.729
-56.747
-59.529
-62.05
-64.285
-66.203
-67.757
-68.934
-69.749
-70.192
-70.263
-69.97
-69.334
-68.437
-67.396
-66.309
-65.262
-64.306
-63.496
-62.948
-62.774
-63.089
-64.026
-65.622
-67.967
-71.29
-75.612
-80.741
-86.256
-91.302
-95.004
-96.779
-95.884
-91.54
-83.664
-72.619
-59.551
-46.71
-36.113
-29.309
-27.951
-33.082
-44.251
-59.88
-76.737
-89.941
-94.407
-84.945
-56.772
-6.152
66.612
156.688
260.441
373.812
493.683
620.458
742.498
839.177
893.844
889.38
824.861
715.859
570.569
397.163
203.384
-4.529
-203.045
-363.726
-469.727
-518.328
-527.14
-518.605
-504.818
-486.699
-455.948
-407.975
-346.445
-279.133
-215.746
-162.025
-119.466
-88.956
-70.134
-61.587
-61.313
-66.403
-73.758
-80.741
-85.486
-86.402
-82.539
-73.984
-61.529
-46.524
-30.686
-15.748
-2.868
7.142
13.812
17.205
17.623
15.605
11.964
7.571
3.025
-1.284
-5.069
-8.163
-10.416
-11.72
-12.09
-11.609
-10.319
-8.215
-5.296
-1.571
2.894
7.975
13.559
19.559
25.89
32.463
39.169
45.856
52.412
58.775
64.903
70.774
76.367
81.658
86.647
91.371
95.869
100.18
104.337
108.358
112.268
116.099
119.888
123.675
127.488
131.336
135.225
139.155
143.125
147.13
151.156
155.174
159.161
163.097
166.965
170.751
174.435
177.996
181.413
184.664
187.732
190.597
193.241
195.643
197.787
199.656
201.236
202.513
203.475
204.107
204.398
204.336
203.909
203.11
201.93
200.364
198.408
196.061
193.326
190.206
186.706
182.837
178.606
174.028
169.117
163.886
158.354
152.54
146.462
140.144
133.607
126.875
119.972
112.924
105.758
98.501
91.181
83.823
76.457
69.109
61.806
54.575
47.44
40.427
33.559
26.859
20.346
14.042
7.965
2.129
-3.451
-8.764
-13.798
-18.546
-23.001
-27.16
-31.02
-34.578
-37.836
-40.796
-43.46
-45.833
-47.923
-49.736
-51.282
-52.57
-53.614
-54.425
-55.015
-55.4
-55.593
-55.609
-55.464
-55.171
-54.747
-54.206
-53.565
-52.837
-52.038
-51.18
-50.278
-49.344
-48.39
-47.425
-46.461
-45.506
-44.569
-43.658
-42.779
-41.939
-41.143
-40.396
-39.704
-39.069
-38.493
-37.98
-37.53
-37.145
-36.824
-36.567
-36.374
-36.244
-36.176
-36.169
-36.22
-36.328
-36.492
-36.707
-36.974
-37.288
-37.649
-38.053
-38.5
-38.987
-39.512
-40.075
-40.674
-41.309
-41.977
-42.678
-43.409
-44.17
-44.958
-45.773
-46.61
-47.469
-48.347
-49.241
-50.149
-51.068
-51.993
-52.923
-53.851
-54.774
-55.688
-56.588
-57.467
-58.321
-59.144
-59.93
-60.674
-61.369
-62.009
-62.588
-63.099
-63.536
-63.892
-64.161
-64.335
-64.409
-64.377
-64.232
-63.971
-63.589
-63.082
-62.447
-61.682
-60.787
-59.76
-58.603
-57.315
-55.899
-54.358
-52.697
-50.921
-49.037
-47.052
-44.973
-42.812
-40.577
-38.281
-35.936
-33.554
-31.148
-28.732
-26.321
-23.932
-21.579
-19.279
-17.048
-14.906
-12.871
-10.962
-9.196
-7.593
-6.169
-4.941
-3.924
-3.131
-2.573
-2.259
-2.197
-2.397
-2.865
-3.604
-4.621
-5.917
-7.493
-9.349
-11.477
-13.862
-16.491
-19.351
-22.427
-25.714
-29.201
-32.871
-36.71
-40.704
-44.831
-49.065
-53.362
-57.661
-61.91
-66.058
-70.06
-73.888
-77.501
-80.854
-83.911
-86.617
-88.935
-90.851
-92.322
-93.318
-93.836
-93.899
-93.591
-93.041
-92.354
-91.612
-90.88
-90.218
-89.744
-89.586
-89.851
-90.659
-92.05
-94.094
-97.008
-100.808
-105.292
-110.058
-114.35
-117.447
-118.952
-118.296
-114.769
-108.312
-99.25
-88.514
-78.024
-69.183
-62.836
-60.298
-62.533
-69.205
-79.187
-89.799
-96.793
-97.084
-87.512
-63.542
-22.076
38.492
116.509
204.882
298.329
394.47
491.682
591.011
683.176
749.486
774.647
744.427
657.99
530.337
373.695
199.462
21.476
-150.152
-301.567
-413.891
-482.091
-513.602
-517.788
-510.3
-498.496
-477.644
-447.169
-407.369
-360.958
-315.841
-276.25
-243.006
-215.872
-193.091
-173.244
-156.006
-141.073
-127.99
-116.132
-104.549
-93.024
-81.887
-71.411
-61.67
-52.306
-43.012
-34.163
-26.699
-21.175
-17.707
-16.192
-16.383
-18.334
-22.081
-27.182
-32.888
-38.501
-43.489
-47.582
-50.709
-52.718
-53.482
-52.996
-51.328
-48.613
-44.991
-40.545
-35.337
-29.446
-22.97
-16.05
-8.84
-1.493
5.823
12.983
19.904
26.523
32.81
38.755
44.345
49.594
54.542
59.221
63.661
67.891
71.926
75.799
79.557
83.247
86.922
90.617
94.345
98.12
101.943
105.81
109.715
113.643
117.566
121.463
125.315
129.108
132.83
136.466
139.994
143.395
146.647
149.732
152.634
155.336
157.822
160.075
162.083
163.834
165.319
166.527
167.446
168.065
168.372
168.357
168.012
167.328
166.298
164.917
163.182
161.091
158.648
155.854
152.714
149.235
145.424
141.291
136.847
132.105
127.078
121.782
116.234
110.45
104.451
98.256
91.886
85.363
78.708
71.944
65.095
58.183
51.232
44.266
37.308
30.382
23.51
16.717
10.023
3.45
-2.981
-9.252
-15.343
-21.239
-26.925
-32.387
-37.612
-42.59
-47.312
-51.769
-55.955
-59.866
-63.496
-66.844
-69.909
-72.691
-75.192
-77.414
-79.36
-81.036
-82.448
-83.602
-84.506
-85.168
-85.599
-85.808
-85.807
-85.607
-85.22
-84.659
-83.936
-83.064
-82.056
-80.925
-79.683
-78.343
-76.917
-75.416
-73.853
-72.237
-70.581
-68.893
-67.184
-65.462
-63.737
-62.017
-60.31
-58.624
-56.966
-55.343
-53.762
-52.229
-50.749
-49.328
-47.969
-46.678
-45.458
-44.312
-43.242
-42.251
-41.34
-40.511
-39.766
-39.104
-38.527
-38.035
-37.627
-37.304
-37.064
-36.908
-36.834
-36.841
-36.928
-37.094
-37.337
-37.654
-38.044
-38.502
-39.025
-39.609
-40.249
-40.939
-41.675
-42.45
-43.258
-44.092
-44.946
-45.812
-46.684
-47.554
-48.413
-49.255
-50.07
-50.852
-51.59
-52.279
-52.909
-53.473
-53.963
-54.373
-54.694
-54.92
-55.043
-55.058
-54.958
-54.736
-54.388
-53.909
-53.296
-52.545
-51.657
-50.63
-49.465
-48.163
-46.728
-45.162
-43.469
-41.654
-39.724
-37.685
-35.544
-33.311
-30.996
-28.609
-26.161
-23.665
-21.133
-18.579
-16.015
-13.455
-10.913
-8.404
-5.942
-3.544
-1.224
1.001
3.116
5.101
6.942
8.621
10.124
11.435
12.541
13.428
14.087
14.51
14.691
14.624
14.306
13.731
12.898
11.806
10.453
8.841
6.971
4.847
2.48
-0.113
-2.917
-5.916
-9.097
-12.459
-15.99
-19.674
-23.5
-27.451
-31.507
-35.64
-39.8
-43.925
-47.957
-51.838
-55.528
-59
-62.217
-65.147
-67.752
-69.98
-71.801
-73.196
-74.131
-74.59
-74.577
-74.122
-73.333
-72.358
-71.332
-70.378
-69.57
-68.975
-68.699
-68.834
-69.493
-70.786
-72.735
-75.434
-79.044
-83.533
-88.721
-94.206
-99.219
-103.071
-105.22
-104.932
-101.675
-95.412
-86.474
-75.989
-65.626
-56.614
-50.158
-47.568
-49.325
-55.068
-63.368
-71.08
-74.73
-71.151
-56.509
-27.005
20.076
84.32
161.354
245.402
332.248
423.858
524.062
628.755
724.277
785.14
787.542
725.94
610.174
463.393
303.518
133.634
-44.257
-225.109
-388.236
-504.05
-558.038
-554.059
-514.811
-467.595
-426.016
-390.387
-353.566
-311.147
-265.352
-221.324
-184.687
-157.366
-138.545
-127.337
-121.254
-117.115
-112.582
-106.187
-97.611
-87.406
-75.735
-62.193
-47.08
-31.667
-17.561
-5.887
3.032
9.426
13.502
15.105
14.225
11.35
7.351
3.03
-1.113
-4.845
-8.07
-10.568
-12.079
-12.492
-11.823
-10.162
-7.592
-4.143
0.187
5.355
11.267
17.807
24.822
32.17
39.721
47.331
54.887
62.291
69.462
76.354
82.943
89.225
95.209
100.916
106.366
111.585
116.607
121.461
126.191
130.839
135.45
140.07
144.733
149.46
154.266
159.155
164.121
169.158
174.248
179.369
184.498
189.615
194.699
199.731
204.689
209.551
214.29
218.881
223.3
227.523
231.53
235.299
238.808
242.037
244.969
247.588
249.876
251.817
253.394
254.589
255.389
255.78
255.751
255.291
254.393
253.051
251.262
249.027
246.348
243.229
239.679
235.705
231.32
226.538
221.374
215.845
209.97
203.77
197.266
190.482
183.441
176.169
168.693
161.038
153.234
145.308
137.289
129.206
121.087
112.962
104.858
96.803
88.824
80.948
73.2
65.603
58.181
50.954
43.941
37.16
30.625
24.349
18.345
12.62
7.183
2.039
-2.808
-7.356
-11.604
-15.552
-19.202
-22.559
-25.626
-28.41
-30.917
-33.156
-35.136
-36.868
-38.361
-39.629
-40.684
-41.539
-42.209
-42.706
-43.047
-43.246
-43.317
-43.275
-43.136
-42.913
-42.62
-42.271
-41.877
-41.45
-41.002
-40.543
-40.081
-39.627
-39.187
-38.77
-38.383
-38.032
-37.722
-37.459
-37.248
-37.093
-36.998
-36.966
-37.001
-37.103
-37.276
-37.519
-37.835
-38.222
-38.681
-39.21
-39.808
-40.473
-41.202
-41.994
-42.844
-43.75
-44.709
-45.716
-46.77
-47.865
-49
-50.17
-51.372
-52.603
-53.859
-55.136
-56.431
-57.74
-59.058
-60.381
-61.704
-63.023
-64.331
-65.623
-66.894
-68.137
-69.346
-70.515
-71.637
-72.707
-73.717
-74.662
-75.537
-76.335
-77.05
-77.679
-78.216
-78.657
-78.998
-79.234
-79.361
-79.377
-79.277
-79.06
-78.723
-78.263
-77.679
-76.971
-76.139
-75.182
-74.104
-72.904
-71.586
-70.155
-68.614
-66.971
-65.231
-63.403
-61.494
-59.516
-57.479
-55.394
-53.275
-51.133
-48.981
-46.835
-44.707
-42.613
-40.568
-38.585
-36.681
-34.871
-33.174
-31.605
-30.181
-28.919
-27.835
-26.946
-26.266
-25.806
-25.577
-25.588
-25.847
-26.362
-27.139
-28.182
-29.497
-31.087
-32.952
-35.092
-37.501
-40.163
-43.067
-46.196
-49.54
-53.093
-56.843
-60.777
-64.883
-69.149
-73.556
-78.082
-82.681
-87.296
-91.874
-96.36
-100.712
-104.899
-108.876
-112.603
-116.038
-119.122
-121.819
-124.1
-125.92
-127.249
-128.076
-128.417
-128.366
-128.05
-127.582
-127.069
-126.569
-126.153
-125.94
-126.035
-126.567
-127.662
-129.354
-131.758
-135.075
-139.291
-144.22
-149.444
-154.155
-157.652
-159.424
-158.756
-155.112
-148.508
-139.341
-128.843
-118.865
-110.735
-105.666
-104.944
-108.927
-116.988
-127.386
-136.671
-141.018
-137.002
-120.584
-87.878
-36.35
33.117
115.476
204.599
296.212
391.665
494.08
599.207
693.279
753.501
758.763
701.418
588.526
437.235
263.29
79.306
-102.404
-267.136
-395.736
-475.707
-508.84
-509.989
-497.725
-483.878
-470.211
-450.106
-420.047
-382.305
-340.594
-300.613
-265.306
-234.086
-206.542
-181.937
-158.683
-136.145
-115.298
-96.752
-81.054
-68.542
-58.228
-49.442
-42.483
-37.173
-32.548
-27.979
-22.962
-17.513
-12.751
-9.328
-7.227
-6.545
-7.334
-9.506
-12.999
-17.375
-21.724
-25.413
-28.112
-29.604
-29.885
-28.961
-26.784
-23.436
-19.107
-13.968
-8.17
-1.823
5
12.189
19.596
27.06
34.432
41.597
48.474
55.014
61.194
67.007
72.46
77.576
82.387
86.929
91.246
95.367
99.327
103.169
106.938
110.691
114.478
118.328
122.26
126.282
130.39
134.581
138.843
143.153
147.492
151.838
156.173
160.482
164.747
168.946
173.058
177.056
180.917
184.621
188.146
191.474
194.585
197.46
200.084
202.441
204.517
206.295
207.758
208.889
209.674
210.099
210.151
209.819
209.095
207.971
206.443
204.511
202.175
199.437
196.304
192.781
188.88
184.613
179.993
175.036
169.761
164.186
158.332
152.223
145.882
139.334
132.603
125.715
118.699
111.581
104.389
97.149
89.89
82.64
75.424
68.27
61.203
54.248
47.429
40.769
34.289
28.009
21.946
16.118
10.538
5.219
0.173
-4.593
-9.072
-13.258
-17.148
-20.742
-24.039
-27.042
-29.753
-32.178
-34.322
-36.194
-37.8
-39.152
-40.259
-41.132
-41.784
-42.226
-42.471
-42.533
-42.425
-42.16
-41.752
-41.215
-40.561
-39.806
-38.96
-38.038
-37.052
-36.014
-34.935
-33.825
-32.696
-31.556
-30.415
-29.279
-28.158
-27.058
-25.985
-24.945
-23.943
-22.983
-22.071
-21.209
-20.4
-19.647
-18.953
-18.319
-17.746
-17.237
-16.792
-16.412
-16.098
-15.849
-15.668
-15.552
-15.504
-15.521
-15.604
-15.751
-15.963
-16.238
-16.575
-16.973
-17.43
-17.944
-18.514
-19.138
-19.813
-20.535
-21.303
-22.112
-22.958
-23.837
-24.746
-25.678
-26.629
-27.593
-28.563
-29.535
-30.5
-31.451
-32.383
-33.286
-34.155
-34.98
-35.756
-36.473
-37.125
-37.705
-38.205
-38.618
-38.939
-39.159
-39.273
-39.275
-39.161
-38.926
-38.566
-38.079
-37.462
-36.714
-35.835
-34.825
-33.685
-32.419
-31.029
-29.52
-27.899
-26.172
-24.347
-22.434
-20.443
-18.386
-16.275
-14.124
-11.946
-9.755
-7.566
-5.396
-3.26
-1.175
0.844
2.78
4.616
6.333
7.912
9.336
10.589
11.652
12.509
13.144
13.546
13.704
13.612
13.261
12.645
11.76
10.601
9.165
7.452
5.463
3.2
0.669
-2.116
-5.14
-8.381
-11.824
-15.458
-19.274
-23.264
-27.416
-31.713
-36.141
-40.676
-45.281
-49.909
-54.5
-58.99
-63.331
-67.477
-71.39
-75.037
-78.371
-81.34
-83.892
-85.983
-87.57
-88.627
-89.131
-89.092
-88.578
-87.687
-86.556
-85.316
-84.047
-82.847
-81.828
-81.092
-80.788
-81.062
-81.988
-83.707
-86.398
-90.048
-94.534
-99.496
-104.207
-108.007
-110.303
-110.338
-107.603
-102.061
-93.993
-84.48
-75.19
-67.441
-62.553
-61.863
-65.738
-73.642
-84.137
-94.036
-99.388
-96.532
-81.414
-50.234
-0.865
67.304
152.986
251.903
358.111
464.591
562.658
643.268
698.537
721.965
709.062
658.647
572.34
454.615
313.15
157.42
-2.663
-157.137
-296.367
-412.392
-499.615
-555.299
-579.883
-576.062
-547.711
-499.962
-439.336
-372.734
-306.408
-245.317
-192.766
-150.646
-120.138
-101.261
-92.523
-91.423
-95.049
-100.602
-105.668
-108.571
-108.004
-103.291
-94.648
-82.921
-69.375
-55.494
-42.795
-32.287
-24.628
-20.156
-18.714
-19.926
-23.242
-27.887
-33.014
-38.02
-42.464
-46.036
-48.64
-50.197
-50.66
-50.087
-48.563
-46.141
-42.876
-38.815
-34.001
-28.516
-22.47
-15.982
-9.182
-2.198
4.833
11.787
18.577
25.139
31.437
37.458
43.185
48.617
53.77
58.67
63.347
67.832
72.148
76.329
80.411
84.436
88.452
92.49
96.565
100.688
104.858
109.072
113.323
117.599
121.876
126.133
130.349
134.506
138.592
142.587
146.471
150.22
153.813
157.228
160.448
163.455
166.23
168.756
171.018
173
174.693
176.084
177.159
177.905
178.311
178.365
178.059
177.385
176.335
174.905
173.093
170.899
168.324
165.375
162.055
158.375
154.343
149.972
145.275
140.269
134.97
129.396
123.567
117.504
111.23
104.766
98.138
91.368
84.482
77.505
70.464
63.382
56.287
49.202
42.153
35.164
28.258
21.457
14.785
8.259
1.901
-4.272
-10.246
-16.004
-21.536
-26.829
-31.877
-36.67
-41.204
-45.476
-49.483
-53.225
-56.702
-59.918
-62.875
-65.579
-68.035
-70.251
-72.233
-73.992
-75.536
-76.876
-78.021
-78.984
-79.776
-80.408
-80.892
-81.24
-81.464
-81.574
-81.583
-81.501
-81.339
-81.106
-80.812
-80.465
-80.073
-79.644
-79.183
-78.697
-78.191
-77.668
-77.133
-76.59
-76.04
-75.487
-74.933
-74.378
-73.826
-73.277
-72.733
-72.194
-71.661
-71.136
-70.618
-70.109
-69.609
-69.119
-68.641
-68.174
-67.721
-67.283
-66.86
-66.455
-66.069
-65.705
-65.363
-65.047
-64.759
-64.501
-64.277
-64.087
-63.935
-63.823
-63.753
-63.726
-63.742
-63.804
-63.91
-64.061
-64.255
-64.49
-64.765
-65.076
-65.419
-65.791
-66.186
-66.599
-67.025
-67.455
-67.885
-68.305
-68.709
-69.089
-69.436
-69.743
-70
-70.198
-70.331
-70.388
-70.361
-70.242
-70.022
-69.695
-69.252
-68.689
-67.999
-67.178
-66.223
-65.131
-63.901
-62.533
-61.027
-59.386
-57.612
-55.711
-53.688
-51.551
-49.307
-46.965
-44.536
-42.031
-39.463
-36.845
-34.189
-31.51
-28.824
-26.146
-23.492
-20.878
-18.321
-15.837
-13.446
-11.166
-9.015
-7.011
-5.172
-3.515
-2.057
-0.81
0.215
1.009
1.564
1.875
1.935
1.741
1.289
0.576
-0.397
-1.631
-3.124
-4.867
-6.844
-9.043
-11.447
-14.045
-16.836
-19.81
-22.953
-26.255
-29.701
-33.269
-36.937
-40.653
-44.355
-47.983
-51.477
-54.793
-57.903
-60.762
-63.331
-65.564
-67.4
-68.803
-69.754
-70.219
-70.181
-69.645
-68.648
-67.308
-65.788
-64.231
-62.765
-61.464
-60.406
-59.721
-59.529
-59.981
-61.218
-63.273
-66.254
-70.343
-75.509
-81.547
-88
-94.013
-98.821
-101.866
-102.405
-99.888
-94.314
-86.034
-76.23
-66.679
-58.668
-53.393
-52.109
-55.178
-62
-70.873
-78.43
-80.971
-75.07
-56.623
-21.762
32.119
104.089
188.949
280.657
374.972
473.584
579.922
689.352
788.058
850.59
853.289
789.093
664.703
505.02
333.693
162.263
2.659
-144.342
-273.646
-371.76
-439.597
-477.345
-488.526
-484.576
-465.014
-429.411
-382.446
-326.889
-270.462
-220.19
-177.623
-143.29
-117.192
-99.233
-88.776
-83.968
-81.915
-79.729
-76.171
-71.169
-64.449
-55.412
-43.986
-30.72
-17.017
-4.785
5.039
12.346
17.085
19.195
18.709
15.826
11.23
6.03
0.985
-3.542
-7.323
-10.256
-12.208
-12.994
-12.573
-11.069
-8.587
-5.202
-0.975
4.083
9.906
16.349
23.247
30.412
37.666
44.891
51.996
58.897
65.534
71.863
77.852
83.51
88.858
93.909
98.682
103.196
107.471
111.548
115.479
119.32
123.129
126.945
130.79
134.683
138.634
142.644
146.712
150.822
154.952
159.088
163.216
167.321
171.391
175.411
179.358
183.214
186.956
190.564
194.019
197.301
200.394
203.281
205.947
208.377
210.56
212.482
214.13
215.49
216.547
217.29
217.708
217.788
217.523
216.903
215.924
214.581
212.873
210.801
208.366
205.573
202.425
198.932
195.103
190.947
186.478
181.709
176.656
171.336
165.765
159.964
153.953
147.752
141.385
134.872
128.237
121.504
114.696
107.836
100.947
94.054
87.179
80.344
73.572
66.884
60.3
53.841
47.524
41.367
35.385
29.594
24.006
18.632
13.484
8.569
3.894
-0.534
-4.712
-8.636
-12.305
-15.72
-18.88
-21.788
-24.448
-26.864
-29.04
-30.984
-32.702
-34.201
-35.491
-36.581
-37.479
-38.195
-38.741
-39.125
-39.359
-39.455
-39.422
-39.272
-39.015
-38.664
-38.227
-37.717
-37.142
-36.513
-35.839
-35.129
-34.39
-33.63
-32.858
-32.079
-31.3
-30.526
-29.764
-29.017
-28.29
-27.588
-26.915
-26.272
-25.664
-25.093
-24.561
-24.07
-23.622
-23.219
-22.86
-22.548
-22.284
-22.067
-21.899
-21.779
-21.706
-21.681
-21.703
-21.771
-21.883
-22.038
-22.236
-22.474
-22.753
-23.069
-23.422
-23.809
-24.228
-24.678
-25.154
-25.655
-26.177
-26.716
-27.269
-27.832
-28.402
-28.973
-29.541
-30.102
-30.65
-31.181
-31.687
-32.165
-32.607
-33.009
-33.365
-33.668
-33.914
-34.098
-34.215
-34.258
-34.225
-34.11
-33.908
-33.616
-33.229
-32.743
-32.156
-31.465
-30.668
-29.764
-28.753
-27.634
-26.409
-25.08
-23.649
-22.117
-20.49
-18.772
-16.967
-15.082
-13.125
-11.103
-9.023
-6.897
-4.733
-2.541
-0.333
1.881
4.091
6.283
8.446
10.568
12.635
14.634
16.552
18.373
20.083
21.667
23.11
24.399
25.52
26.459
27.205
27.748
28.081
28.195
28.084
27.741
27.163
26.346
25.287
23.984
22.434
20.638
18.599
16.329
13.839
11.138
8.236
5.135
1.843
-1.626
-5.261
-9.049
-12.975
-17.019
-21.145
-25.295
-29.413
-33.448
-37.352
-41.095
-44.641
-47.944
-50.969
-53.669
-56.005
-57.965
-59.529
-60.666
-61.38
-61.688
-61.655
-61.427
-61.141
-60.918
-60.873
-61.065
-61.583
-62.55
-64.059
-66.227
-69.154
-72.841
-77.376
-82.917
-89.387
-96.553
-103.941
-110.697
-116.078
-119.538
-120.361
-118
-112.446
-104.056
-93.942
-83.875
-75.303
-69.534
-67.85
-70.634
-77.225
-86.004
-93.923
-97.346
-92.438
-74.737
-40.612
12.072
81.937
163.468
252.837
347.039
444.647
547.099
644.123
717.996
751.708
727.715
647.087
524.981
377.856
222.248
64.46
-90.44
-235.861
-361.016
-451.164
-506.37
-530.935
-532.412
-523.236
-503.028
-470.817
-430.067
-382.646
-335.005
-292.599
-256.334
-226.484
-202.347
-183.292
-169.346
-159.375
-151.97
-145.9
-139.745
-133.091
-126.1
-118.367
-109.364
-99.235
-88.261
-77.17
-67.339
-59.375
-53.343
-49.498
-47.963
-48.645
-51.414
-55.718
-60.597
-65.441
-69.859
-73.513
-76.272
-78.001
-78.555
-77.959
-76.335
-73.764
-70.329
-66.09
-61.07
-55.347
-49.034
-42.261
-35.174
-27.915
-20.632
-13.454
-6.472
0.247
6.67
12.785
18.583
24.067
29.264
34.2
38.903
43.403
47.723
51.898
55.974
59.999
64.025
68.089
72.209
76.397
80.657
84.984
89.374
93.812
98.274
102.739
107.188
111.605
115.976
120.285
124.509
128.624
132.608
136.438
140.096
143.561
146.812
149.832
152.6
155.102
157.322
159.246
160.856
162.135
163.069
163.642
163.843
163.659
163.08
162.099
160.711
158.913
156.707
154.094
151.078
147.666
143.867
139.69
135.149
130.258
125.032
119.488
113.646
107.526
101.15
94.541
87.723
80.721
73.56
66.269
58.873
51.401
43.881
36.341
28.81
21.315
13.884
6.544
-0.679
-7.762
-14.679
-21.411
-27.936
-34.237
-40.297
-46.101
-51.638
-56.895
-61.865
-66.539
-70.913
-74.982
-78.744
-82.198
-85.346
-88.188
-90.73
-92.975
-94.929
-96.601
-97.997
-99.127
-100.002
-100.633
-101.032
-101.213
-101.188
-100.972
-100.58
-100.027
-99.326
-98.494
-97.543
-96.489
-95.344
-94.122
-92.835
-91.495
-90.113
-88.7
-87.265
-85.817
-84.366
-82.918
-81.48
-80.06
-78.663
-77.293
-75.958
-74.66
-73.404
-72.194
-71.034
-69.926
-68.872
-67.874
-66.934
-66.052
-65.228
-64.463
-63.756
-63.106
-62.511
-61.972
-61.485
-61.051
-60.667
-60.332
-60.044
-59.801
-59.603
-59.446
-59.329
-59.251
-59.209
-59.202
-59.227
-59.283
-59.366
-59.475
-59.606
-59.754
-59.917
-60.089
-60.266
-60.442
-60.613
-60.773
-60.917
-61.038
-61.133
-61.195
-61.219
-61.199
-61.132
-61.011
-60.831
-60.588
-60.276
-59.891
-59.429
-58.884
-58.255
-57.537
-56.728
-55.826
-54.827
-53.731
-52.537
-51.245
-49.854
-48.366
-46.782
-45.106
-43.342
-41.495
-39.571
-37.577
-35.521
-33.41
-31.255
-29.065
-26.848
-24.617
-22.382
-20.154
-17.946
-15.771
-13.641
-11.569
-9.571
-7.66
-5.852
-4.159
-2.596
-1.176
0.088
1.183
2.102
2.836
3.376
3.716
3.849
3.769
3.473
2.959
2.221
1.258
0.068
-1.345
-2.969
-4.796
-6.815
-9.021
-11.413
-13.983
-16.718
-19.604
-22.633
-25.785
-29.041
-32.362
-35.682
-38.944
-42.09
-45.074
-47.865
-50.423
-52.705
-54.666
-56.258
-57.454
-58.248
-58.622
-58.557
-58.065
-57.174
-55.978
-54.652
-53.348
-52.211
-51.364
-50.865
-50.82
-51.355
-52.582
-54.623
-57.544
-61.327
-66.037
-71.811
-78.573
-86.064
-93.706
-100.517
-105.66
-108.529
-108.464
-104.942
-97.866
-87.61
-75.398
-63.276
-53.081
-46.214
-43.72
-45.861
-51.987
-60.279
-67.298
-68.405
-59.028
-35.036
6.785
67.936
148.222
244.926
352.349
462.892
567.782
657.326
722.255
754.75
750.548
710.538
638.004
536.473
404.829
240.28
48.653
-153.539
-336.228
-467.971
-534.676
-542.037
-513.179
-473.35
-435.899
-402.09
-365.585
-323.371
-278.064
-234.362
-198.068
-171.248
-152.98
-142.389
-136.813
-132.739
-127.709
-120.24
-109.931
-97.344
-82.747
-65.861
-47.195
-28.274
-10.844
3.885
15.5
24.188
30.104
33.032
32.954
30.384
26.178
21.142
15.787
10.338
4.943
-0.075
-4.348
-7.648
-9.9
-11.135
-11.387
-10.633
-8.819
-5.951
-2.102
2.604
8.019
14.018
20.481
27.285
34.292
41.337
48.276
55.006
61.463
67.617
73.458
78.97
84.152
89.025
93.624
97.992
102.173
106.197
110.096
113.907
117.673
121.444
125.257
129.13
133.072
137.08
141.149
145.271
149.432
153.604
157.761
161.879
165.939
169.922
173.811
177.581
181.208
184.667
187.938
191
193.834
196.422
198.745
200.787
202.534
203.974
205.096
205.886
206.333
206.423
206.147
205.498
204.467
203.05
201.243
199.045
196.458
193.487
190.137
186.416
182.333
177.901
173.133
168.043
162.648
156.966
151.015
144.816
138.39
131.761
124.951
117.984
110.883
103.676
96.385
89.037
81.657
74.27
66.901
59.573
52.313
45.142
38.083
31.158
24.389
17.795
11.394
5.204
-0.76
-6.484
-11.955
-17.163
-22.097
-26.752
-31.119
-35.195
-38.976
-42.46
-45.647
-48.538
-51.135
-53.441
-55.46
-57.199
-58.664
-59.862
-60.801
-61.492
-61.943
-62.164
-62.168
-61.966
-61.57
-60.994
-60.25
-59.353
-58.317
-57.156
-55.884
-54.517
-53.069
-51.554
-49.987
-48.383
-46.754
-45.113
-43.475
-41.85
-40.252
-38.69
-37.175
-35.717
-34.325
-33.008
-31.773
-30.628
-29.578
-28.629
-27.787
-27.055
-26.437
-25.935
-25.552
-25.289
-25.146
-25.122
-25.215
-25.424
-25.745
-26.173
-26.704
-27.331
-28.048
-28.847
-29.72
-30.659
-31.653
-32.695
-33.773
-34.877
-35.998
-37.124
-38.245
-39.351
-40.43
-41.472
-42.467
-43.405
-44.277
-45.072
-45.783
-46.4
-46.916
-47.322
-47.613
-47.782
-47.822
-47.728
-47.497
-47.126
-46.611
-45.953
-45.151
-44.206
-43.121
-41.898
-40.542
-39.058
-37.451
-35.729
-33.899
-31.97
-29.953
-27.858
-25.695
-23.478
-21.218
-18.929
-16.625
-14.32
-12.025
-9.758
-7.531
-5.359
-3.258
-1.24
0.679
2.482
4.154
5.679
7.043
8.229
9.225
10.017
10.595
10.949
11.075
10.966
10.619
10.03
9.199
8.123
6.802
5.238
3.431
1.385
-0.889
-3.377
-6.063
-8.932
-11.972
-15.179
-18.543
-22.05
-25.692
-29.455
-33.325
-37.278
-41.269
-45.238
-49.129
-52.882
-56.451
-59.804
-62.891
-65.671
-68.098
-70.113
-71.683
-72.786
-73.386
-73.461
-73.015
-72.08
-70.767
-69.236
-67.628
-66.076
-64.675
-63.518
-62.756
-62.524
-62.979
-64.262
-66.417
-69.55
-73.848
-79.291
-85.684
-92.58
-99.128
-104.539
-108.206
-109.333
-107.322
-102.122
-94.017
-84.168
-74.405
-66.146
-60.859
-60.033
-64.076
-72.387
-83.285
-93.193
-98.088
-94.176
-76.507
-40.564
16.317
93.02
183.742
281.663
381.743
485.595
596.271
707.197
803.143
857.274
844.333
761.212
619.599
444.346
261.537
78.852
-97.644
-259.225
-396.123
-488.365
-529.383
-530.553
-505.409
-472.687
-440.761
-404.579
-363.48
-318.61
-273.402
-234.946
-205.559
-184.202
-170.273
-162.357
-158.483
-156.326
-153.264
-147.816
-139.821
-129.749
-117.752
-103.473
-87.217
-70.279
-54.368
-40.673
-29.541
-20.796
-14.282
-10.219
-8.685
-9.256
-11.143
-13.601
-16.235
-18.937
-21.704
-24.372
-26.661
-28.359
-29.37
-29.692
-29.342
-28.289
-26.475
-23.87
-20.517
-16.505
-11.954
-6.973
-1.628
4.037
9.982
16.142
22.422
28.718
34.928
40.992
46.872
52.537
57.969
63.152
68.097
72.834
77.41
81.861
86.206
90.454
94.609
98.682
102.697
106.677
110.651
114.636
118.637
122.66
126.703
130.76
134.818
138.855
142.841
146.75
150.563
154.259
157.822
161.234
164.472
167.515
170.341
172.928
175.257
177.308
179.061
180.5
181.609
182.376
182.792
182.847
182.533
181.842
180.768
179.308
177.459
175.221
172.597
169.589
166.204
162.451
158.34
153.884
149.096
143.992
138.589
132.905
126.96
120.776
114.374
107.778
101.011
94.098
87.063
79.934
72.734
65.489
58.227
50.97
43.746
36.578
29.491
22.506
15.646
8.931
2.379
-3.99
-10.162
-16.12
-21.853
-27.348
-32.595
-37.585
-42.311
-46.767
-50.949
-54.853
-58.478
-61.823
-64.89
-67.679
-70.193
-72.437
-74.416
-76.135
-77.601
-78.822
-79.805
-80.561
-81.098
-81.427
-81.559
-81.504
-81.273
-80.88
-80.334
-79.648
-78.834
-77.903
-76.867
-75.738
-74.526
-73.243
-71.901
-70.511
-69.083
-67.628
-66.156
-64.678
-63.204
-61.743
-60.304
-58.897
-57.53
-56.21
-54.946
-53.744
-52.612
-51.554
-50.577
-49.685
-48.882
-48.172
-47.558
-47.042
-46.625
-46.308
-46.092
-45.977
-45.96
-46.04
-46.215
-46.48
-46.832
-47.266
-47.776
-48.357
-49.001
-49.7
-50.447
-51.232
-52.047
-52.881
-53.725
-54.568
-55.399
-56.209
-56.986
-57.72
-58.401
-59.018
-59.562
-60.023
-60.393
-60.662
-60.822
-60.866
-60.786
-60.577
-60.233
-59.749
-59.123
-58.351
-57.433
-56.368
-55.157
-53.801
-52.303
-50.667
-48.898
-47.002
-44.986
-42.859
-40.63
-38.31
-35.911
-33.446
-30.927
-28.369
-25.786
-23.193
-20.605
-18.038
-15.508
-13.03
-10.621
-8.297
-6.077
-3.98
-2.022
-0.221
1.406
2.843
4.074
5.086
5.872
6.423
6.732
6.794
6.601
6.149
5.433
4.455
3.215
1.716
-0.036
-2.03
-4.249
-6.675
-9.289
-12.08
-15.047
-18.184
-21.483
-24.932
-28.518
-32.217
-36.006
-39.848
-43.692
-47.488
-51.188
-54.751
-58.148
-61.35
-64.321
-67.015
-69.37
-71.333
-72.86
-73.91
-74.464
-74.539
-74.164
-73.412
-72.386
-71.16
-69.833
-68.525
-67.341
-66.413
-65.872
-65.81
-66.385
-67.853
-70.322
-73.758
-77.91
-82.156
-85.904
-88.734
-90.053
-89.159
-85.685
-79.66
-71.832
-64.009
-57.919
-54.678
-55.436
-61.206
-72.277
-88.104
-106.629
-123.537
-134.262
-135.233
-122.399
-91.686
-40.557
32.613
125.313
228.951
337.547
447.284
555.268
662.838
760.102
827.756
850.586
814.494
721.792
590.32
430.167
250.545
58.868
-139.072
-319.499
-455.194
-531.581
-548.674
-527.827
-494.458
-462.173
-432.826
-398.416
-353.632
-300.845
-245.673
-195.628
-154.841
-123.514
-101.557
-87.749
-80.271
-77.498
-77.836
-79.584
-81.141
-81.404
-79.21
-73.977
-66.049
-56.099
-44.878
-33.397
-22.847
-14.028
-7.622
-3.964
-2.824
-3.817
-6.464
-10.143
-14.131
-17.886
-21.009
-23.214
-24.446
-24.698
-23.973
-22.338
-19.886
-16.678
-12.763
-8.214
-3.075
2.581
8.633
14.983
21.515
28.093
34.623
41.018
47.211
53.178
58.908
64.389
69.624
74.626
79.405
83.993
88.418
92.7
96.869
100.958
105.002
109.051
113.136
117.275
121.476
125.74
130.061
134.435
138.85
143.282
147.713
152.122
156.49
160.803
165.045
169.192
173.222
177.109
180.832
184.372
187.708
190.823
193.698
196.316
198.662
200.724
202.491
203.948
205.081
205.88
206.332
206.427
206.158
205.517
204.497
203.096
201.312
199.148
196.606
193.692
190.412
186.775
182.793
178.478
173.844
168.907
163.684
158.193
152.455
146.492
140.326
133.979
127.476
120.841
114.097
107.271
100.385
93.465
86.535
79.618
72.739
65.921
59.187
52.558
46.055
39.699
33.509
27.502
21.694
16.101
10.733
5.604
0.723
-3.903
-8.266
-12.363
-16.189
-19.743
-23.025
-26.036
-28.78
-31.261
-33.485
-35.459
-37.19
-38.689
-39.963
-41.025
-41.884
-42.553
-43.042
-43.366
-43.537
-43.568
-43.473
-43.267
-42.962
-42.574
-42.115
-41.6
-41.042
-40.453
-39.845
-39.231
-38.622
-38.028
-37.458
-36.922
-36.429
-35.984
-35.595
-35.266
-35.002
-34.806
-34.682
-34.631
-34.655
-34.754
-34.929
-35.179
-35.504
-35.902
-36.373
-36.913
-37.52
-38.191
-38.922
-39.71
-40.549
-41.437
-42.367
-43.336
-44.337
-45.365
-46.416
-47.483
-48.561
-49.645
-50.728
-51.807
-52.875
-53.928
-54.962
-55.972
-56.954
-57.904
-58.817
-59.69
-60.519
-61.3
-62.027
-62.698
-63.309
-63.855
-64.333
-64.74
-65.071
-65.323
-65.494
-65.581
-65.58
-65.49
-65.307
-65.031
-64.659
-64.192
-63.627
-62.967
-62.21
-61.358
-60.412
-59.374
-58.245
-57.028
-55.725
-54.34
-52.877
-51.341
-49.737
-48.071
-46.35
-44.584
-42.78
-40.949
-39.1
-37.244
-35.392
-33.556
-31.749
-29.982
-28.269
-26.622
-25.055
-23.585
-22.227
-20.997
-19.907
-18.974
-18.211
-17.633
-17.249
-17.068
-17.094
-17.336
-17.798
-18.487
-19.408
-20.564
-21.955
-23.582
-25.443
-27.532
-29.839
-32.345
-35.033
-37.888
-40.901
-44.069
-47.385
-50.842
-54.426
-58.126
-61.918
-65.774
-69.654
-73.505
-77.271
-80.908
-84.376
-87.642
-90.677
-93.437
-95.867
-97.917
-99.539
-100.688
-101.323
-101.424
-101.006
-100.115
-98.832
-97.259
-95.478
-93.582
-91.688
-89.91
-88.374
-87.222
-86.552
-86.504
-87.321
-89.083
-91.711
-94.95
-98.216
-100.948
-102.783
-103.117
-101.197
-96.832
-90.207
-82.154
-74.463
-68.46
-64.863
-64.89
-69.642
-79.025
-92.173
-106.551
-117.819
-122.713
-118.326
-100.575
-65.79
-11.559
61.088
146.243
237.034
329.49
425.756
530.192
639.191
738.584
802.614
805.159
736.636
606.294
440.671
268.814
108.422
-34.442
-163.309
-279.72
-379.038
-454.94
-501.648
-518.669
-510.277
-482.214
-440.637
-391.746
-341.94
-296.564
-258.57
-228.68
-206.403
-190.627
-180.323
-174.231
-169.617
-163.652
-155.055
-143.699
-130.086
-115.012
-98.795
-81.412
-63.963
-48.087
-34.636
-23.994
-16.086
-10.454
-7.04
-6.091
-7.276
-9.863
-13.27
-16.939
-20.579
-24.151
-27.409
-30.004
-31.734
-32.512
-32.335
-31.287
-29.384
-26.59
-22.932
-18.467
-13.3
-7.572
-1.399
5.11
11.842
18.68
25.481
32.117
38.503
44.582
50.332
55.752
60.834
65.583
70.027
74.196
78.133
81.881
85.468
88.928
92.299
95.622
98.946
102.311
105.736
109.234
112.808
116.455
120.174
123.954
127.773
131.61
135.448
139.268
143.059
146.805
150.483
154.072
157.549
160.893
164.083
167.101
169.925
172.536
174.916
177.048
178.918
180.512
181.813
182.806
183.474
183.805
183.787
183.408
182.659
181.533
180.026
178.136
175.865
173.214
170.188
166.794
163.039
158.935
154.494
149.729
144.656
139.291
133.656
127.77
121.655
115.335
108.834
102.175
95.387
88.493
81.522
74.499
67.451
60.405
53.388
46.427
39.546
32.77
26.124
19.63
13.309
7.181
1.263
-4.427
-9.877
-15.073
-20.004
-24.661
-29.036
-33.124
-36.92
-40.421
-43.628
-46.541
-49.162
-51.496
-53.548
-55.325
-56.835
-58.087
-59.091
-59.858
-60.4
-60.73
-60.859
-60.804
-60.578
-60.196
-59.673
-59.024
-58.265
-57.41
-56.474
-55.472
-54.416
-53.321
-52.199
-51.062
-49.921
-48.789
-47.673
-46.585
-45.533
-44.524
-43.565
-42.663
-41.822
-41.047
-40.342
-39.71
-39.155
-38.677
-38.279
-37.962
-37.727
-37.573
-37.499
-37.506
-37.591
-37.753
-37.989
-38.297
-38.675
-39.118
-39.624
-40.19
-40.811
-41.484
-42.205
-42.97
-43.775
-44.615
-45.487
-46.386
-47.308
-48.249
-49.206
-50.173
-51.146
-52.123
-53.097
-54.066
-55.024
-55.967
-56.889
-57.786
-58.653
-59.484
-60.273
-61.015
-61.704
-62.336
-62.903
-63.402
-63.827
-64.173
-64.434
-64.608
-64.689
-64.674
-64.56
-64.342
-64.019
-63.587
-63.045
-62.392
-61.627
-60.749
-59.758
-58.656
-57.442
-56.12
-54.69
-53.156
-51.522
-49.792
-47.971
-46.066
-44.084
-42.031
-39.917
-37.752
-35.547
-33.311
-31.056
-28.793
-26.536
-24.297
-22.088
-19.924
-17.816
-15.779
-13.828
-11.977
-10.242
-8.636
-7.173
-5.868
-4.733
-3.781
-3.019
-2.456
-2.099
-1.954
-2.028
-2.328
-2.856
-3.62
-4.621
-5.86
-7.337
-9.047
-10.976
-13.114
-15.447
-17.965
-20.666
-23.543
-26.583
-29.778
-33.115
-36.575
-40.137
-43.759
-47.384
-50.962
-54.445
-57.791
-60.975
-63.961
-66.706
-69.177
-71.324
-73.103
-74.492
-75.456
-75.963
-76.013
-75.635
-74.914
-73.983
-72.964
-71.95
-71.015
-70.234
-69.724
-69.623
-70.051
-71.139
-72.943
-75.553
-79.185
-83.857
-89.375
-95.332
-100.963
-105.55
-108.688
-109.802
-108.165
-103.677
-96.585
-87.715
-78.924
-71.539
-66.185
-63.997
-65.898
-71.562
-80.061
-89.004
-94.162
-92.43
-81.184
-56.323
-14.386
46.479
124.985
215.046
309.336
403.659
499.809
600.442
701.191
788.329
838.214
829.91
756.596
625.86
455.66
263.016
61.831
-134.534
-309.196
-441.137
-517.854
-542.158
-531.108
-506.414
-481.182
-456.205
-424.128
-380.504
-327.84
-272.131
-221.168
-179.259
-146.765
-123.76
-109.306
-101.701
-99.173
-99.94
-102.077
-103.712
-103.59
-100.431
-93.495
-83.095
-70.017
-55.129
-39.607
-24.835
-11.743
-1.12
6.549
11.408
13.796
14.115
12.975
11.06
8.798
6.524
4.497
2.753
1.336
0.311
-0.338
-0.606
-0.407
0.319
1.61
3.508
5.982
8.977
12.457
16.37
20.674
25.332
30.286
35.493
40.924
46.542
52.301
58.131
63.928
69.622
75.178
80.575
85.815
90.9
95.825
100.602
105.25
109.781
114.205
118.519
122.711
126.782
130.742
134.611
138.418
142.179
145.898
149.572
153.194
156.754
160.241
163.632
166.899
170.02
172.975
175.75
178.336
180.717
182.875
184.794
186.453
187.838
188.934
189.728
190.207
190.362
190.185
189.671
188.821
187.633
186.104
184.235
182.026
179.48
176.598
173.388
169.853
166.002
161.845
157.394
152.664
147.667
142.421
136.943
131.252
125.365
119.305
113.09
106.742
100.283
93.734
87.119
80.459
73.776
67.093
60.432
53.814
47.259
40.788
34.421
28.174
22.067
16.116
10.335
4.741
-0.655
-5.841
-10.806
-15.541
-20.037
-24.29
-28.294
-32.046
-35.544
-38.787
-41.777
-44.516
-47.006
-49.252
-51.26
-53.036
-54.587
-55.921
-57.048
-57.975
-58.714
-59.275
-59.667
-59.903
-59.992
-59.948
-59.78
-59.501
-59.122
-58.654
-58.107
-57.493
-56.822
-56.103
-55.346
-54.559
-53.752
-52.932
-52.105
-51.28
-50.462
-49.656
-48.868
-48.101
-47.359
-46.644
-45.961
-45.31
-44.694
-44.113
-43.569
-43.062
-42.594
-42.165
-41.774
-41.424
-41.112
-40.839
-40.606
-40.411
-40.254
-40.136
-40.056
-40.013
-40.008
-40.041
-40.111
-40.218
-40.362
-40.542
-40.757
-41.007
-41.292
-41.61
-41.96
-42.342
-42.756
-43.199
-43.671
-44.171
-44.695
-45.243
-45.811
-46.396
-46.995
-47.604
-48.218
-48.832
-49.443
-50.043
-50.629
-51.193
-51.73
-52.232
-52.693
-53.106
-53.463
-53.757
-53.98
-54.127
-54.189
-54.163
-54.041
-53.819
-53.492
-53.057
-52.509
-51.845
-51.063
-50.161
-49.138
-47.994
-46.73
-45.347
-43.85
-42.242
-40.527
-38.713
-36.806
-34.815
-32.749
-30.617
-28.43
-26.201
-23.943
-21.669
-19.396
-17.138
-14.913
-12.739
-10.633
-8.615
-6.702
-4.911
-3.26
-1.767
-0.446
0.688
1.624
2.351
2.857
3.131
3.165
2.953
2.488
1.762
0.773
-0.486
-2.011
-3.794
-5.824
-8.093
-10.592
-13.319
-16.268
-19.423
-22.769
-26.295
-29.978
-33.796
-37.712
-41.658
-45.574
-49.403
-53.093
-56.611
-59.922
-62.978
-65.744
-68.172
-70.22
-71.876
-73.118
-73.913
-74.264
-74.188
-73.746
-73.091
-72.366
-71.696
-71.207
-70.955
-71.018
-71.515
-72.527
-74.162
-76.517
-79.582
-83.44
-88.246
-93.921
-100.247
-106.777
-112.649
-117.139
-119.695
-119.533
-116.117
-109.432
-99.749
-88.194
-76.506
-65.958
-57.849
-53.631
-53.808
-57.98
-64.771
-71.044
-73.324
-68.412
-52.324
-21.03
28.767
96.716
177.895
266.548
356.107
446.838
545.624
649.661
752.065
835.165
865.783
827.83
713.943
525.913
295.173
49.505
-181.089
-358.278
-471.337
-520.452
-517.687
-495.734
-472.783
-455.173
-442.743
-422.81
-390.49
-349.343
-303.898
-261.57
-225.896
-196.141
-171.156
-149.134
-129.125
-111.52
-96.51
-84.108
-74.008
-65.265
-57.396
-50.477
-44.245
-38.063
-31.509
-24.319
-16.804
-10.081
-4.801
-1.056
0.999
1.297
-0.078
-3.034
-7.094
-11.334
-15.126
-18.112
-20.027
-20.839
-20.518
-18.991
-16.327
-12.696
-8.234
-3.076
2.677
8.985
15.747
22.825
30.078
37.337
44.47
51.381
57.994
64.269
70.19
75.747
80.953
85.833
90.417
94.744
98.852
102.763
106.514
110.146
113.708
117.261
120.849
124.497
128.223
132.035
135.93
139.909
143.96
148.061
152.196
156.344
160.49
164.622
168.722
172.771
176.747
180.625
184.384
188.003
191.464
194.745
197.828
200.693
203.324
205.704
207.818
209.648
211.177
212.387
213.262
213.788
213.952
213.741
213.145
212.157
210.771
208.985
206.797
204.209
201.224
197.848
194.088
189.955
185.459
180.614
175.436
169.94
164.147
158.075
151.748
145.186
138.414
131.457
124.341
117.091
109.735
102.3
94.813
87.301
79.791
72.31
64.884
57.538
50.297
43.185
36.223
29.432
22.833
16.441
10.274
4.346
-1.331
-6.746
-11.888
-16.751
-21.328
-25.615
-29.608
-33.306
-36.709
-39.819
-42.638
-45.171
-47.422
-49.4
-51.11
-52.563
-53.768
-54.734
-55.473
-55.997
-56.318
-56.448
-56.4
-56.188
-55.824
-55.321
-54.693
-53.953
-53.114
-52.187
-51.184
-50.118
-49.001
-47.842
-46.652
-45.443
-44.222
-43
-41.785
-40.585
-39.408
-38.261
-37.15
-36.081
-35.06
-34.091
-33.18
-32.331
-31.546
-30.83
-30.185
-29.614
-29.119
-28.702
-28.363
-28.105
-27.927
-27.831
-27.815
-27.881
-28.027
-28.253
-28.557
-28.938
-29.394
-29.922
-30.519
-31.184
-31.911
-32.698
-33.541
-34.435
-35.375
-36.357
-37.375
-38.425
-39.499
-40.592
-41.697
-42.807
-43.916
-45.016
-46.099
-47.157
-48.184
-49.17
-50.11
-50.994
-51.816
-52.568
-53.242
-53.832
-54.331
-54.734
-55.033
-55.225
-55.305
-55.269
-55.114
-54.838
-54.44
-53.917
-53.27
-52.5
-51.608
-50.595
-49.464
-48.218
-46.862
-45.402
-43.844
-42.194
-40.462
-38.655
-36.783
-34.857
-32.889
-30.888
-28.868
-26.84
-24.819
-22.817
-20.849
-18.929
-17.07
-15.288
-13.598
-12.014
-10.551
-9.223
-8.043
-7.024
-6.177
-5.512
-5.035
-4.754
-4.676
-4.806
-5.151
-5.712
-6.496
-7.504
-8.737
-10.194
-11.871
-13.755
-15.836
-18.102
-20.542
-23.153
-25.929
-28.857
-31.927
-35.127
-38.437
-41.836
-45.286
-48.731
-52.123
-55.416
-58.567
-61.554
-64.343
-66.898
-69.19
-71.171
-72.803
-74.07
-74.945
-75.404
-75.45
-75.11
-74.466
-73.646
-72.774
-71.946
-71.238
-70.717
-70.49
-70.674
-71.374
-72.72
-74.77
-77.607
-81.421
-86.229
-91.86
-97.968
-103.838
-108.728
-112.139
-113.427
-111.873
-107.401
-100.267
-91.248
-82.149
-74.497
-69.317
-68.018
-71.589
-79.558
-90.747
-102.824
-111.583
-113.18
-104.194
-80.439
-38.817
21.334
99.239
192.167
294.478
399.712
500.62
588.151
653.869
691.77
697.374
667.968
604.061
508.737
387.566
249.207
103.385
-41.221
-176.314
-293.652
-386.967
-452.91
-490.919
-503.509
-495.091
-470.113
-433.543
-391.625
-350.155
-312.968
-282.12
-257.802
-238.961
-224.561
-213.253
-202.692
-190.522
-175.462
-157.178
-136.232
-113.705
-90.512
-67.541
-45.971
-26.992
-11.321
0.789
9.484
15.178
18.222
18.908
17.584
14.664
10.537
5.553
0.007
-5.898
-11.919
-17.756
-23.108
-27.688
-31.293
-33.823
-35.235
-35.517
-34.686
-32.789
-29.892
-26.103
-21.541
-16.321
-10.56
-4.351
2.194
8.941
15.746
22.461
28.984
35.263
41.267
46.983
52.41
57.556
62.449
67.135
71.655
76.041
80.316
84.498
88.611
92.69
96.771
100.893
105.077
109.329
113.649
118.032
122.464
126.928
131.397
135.838
140.219
144.518
148.711
152.779
156.7
160.449
164.003
167.336
170.426
173.254
175.798
178.039
179.961
181.547
182.785
183.666
184.18
184.316
184.069
183.429
182.392
180.955
179.118
176.881
174.246
171.22
167.812
164.032
159.893
155.409
150.598
145.477
140.065
134.383
128.451
122.293
115.931
109.388
102.687
95.854
88.913
81.889
74.807
67.692
60.569
53.463
46.398
39.397
32.482
25.675
18.996
12.463
6.095
-0.092
-6.085
-11.867
-17.43
-22.761
-27.853
-32.7
-37.296
-41.638
-45.724
-49.554
-53.128
-56.448
-59.515
-62.333
-64.905
-67.235
-69.329
-71.192
-72.83
-74.251
-75.461
-76.469
-77.284
-77.914
-78.368
-78.657
-78.789
-78.775
-78.623
-78.345
-77.948
-77.444
-76.841
-76.149
-75.378
-74.535
-73.63
-72.671
-71.666
-70.622
-69.546
-68.447
-67.33
-66.202
-65.072
-63.945
-62.83
-61.732
-60.66
-59.62
-58.619
-57.664
-56.761
-55.914
-55.131
-54.415
-53.771
-53.203
-52.714
-52.308
-51.985
-51.75
-51.602
-51.542
-51.57
-51.687
-51.889
-52.176
-52.545
-52.994
-53.518
-54.114
-54.778
-55.504
-56.288
-57.122
-58
-58.915
-59.858
-60.819
-61.79
-62.76
-63.719
-64.656
-65.56
-66.421
-67.229
-67.974
-68.645
-69.234
-69.731
-70.129
-70.418
-70.591
-70.642
-70.564
-70.352
-70.003
-69.513
-68.88
-68.103
-67.182
-66.117
-64.911
-63.564
-62.08
-60.464
-58.721
-56.857
-54.881
-52.801
-50.627
-48.372
-46.048
-43.668
-41.248
-38.802
-36.344
-33.891
-31.459
-29.065
-26.723
-24.451
-22.264
-20.179
-18.215
-16.389
-14.717
-13.216
-11.901
-10.787
-9.888
-9.215
-8.776
-8.577
-8.623
-8.919
-9.469
-10.277
-11.344
-12.669
-14.253
-16.091
-18.177
-20.498
-23.038
-25.776
-28.695
-31.78
-35.022
-38.411
-41.935
-45.58
-49.332
-53.17
-57.061
-60.959
-64.812
-68.564
-72.165
-75.575
-78.754
-81.665
-84.274
-86.535
-88.405
-89.851
-90.826
-91.299
-91.248
-90.685
-89.668
-88.291
-86.668
-84.904
-83.084
-81.299
-79.67
-78.319
-77.368
-76.948
-77.117
-77.987
-79.784
-82.55
-86.155
-90.242
-94.087
-96.98
-98.437
-97.826
-94.477
-88.264
-79.394
-68.829
-58.53
-50.151
-44.922
-44.14
-48.52
-57.685
-70.538
-84.254
-94.225
-96.179
-86.047
-59.818
-14.887
49.707
133.402
232.522
340.632
450.632
553.849
640.608
702.736
733.008
727.525
688.159
616.036
512.543
379.711
216.623
34.046
-147.396
-307.095
-421.286
-483.411
-505.793
-500.76
-484.259
-463.092
-431.005
-387.478
-334.772
-277.571
-225.031
-181.48
-147.021
-121.856
-105.532
-96.602
-93.313
-92.954
-92.474
-90.491
-86.9
-81.376
-73.287
-62.645
-49.994
-36.668
-24.61
-14.761
-7.214
-2.043
0.687
1.003
-0.943
-4.513
-8.638
-12.62
-16.139
-19.008
-21.182
-22.514
-22.809
-22.023
-20.265
-17.641
-14.233
-10.081
-5.178
0.414
6.564
13.116
19.892
26.742
33.57
40.303
46.877
53.228
59.303
65.074
70.546
75.738
80.666
85.343
89.779
94
98.051
101.984
105.86
109.731
113.631
117.584
121.606
125.709
129.898
134.168
138.506
142.893
147.314
151.755
156.204
160.646
165.061
169.427
173.721
177.919
181.998
185.936
189.711
193.302
196.691
199.86
202.792
205.471
207.882
210.007
211.83
213.332
214.498
215.313
215.764
215.839
215.527
214.821
213.714
212.206
210.293
207.979
205.265
202.158
198.663
194.792
190.554
185.964
181.036
175.787
170.235
164.4
158.304
151.968
145.417
138.675
131.765
124.714
117.547
110.291
102.971
95.614
88.247
80.896
73.586
66.343
59.19
52.151
45.248
38.502
31.931
25.553
19.383
13.438
7.729
2.267
-2.937
-7.875
-12.542
-16.932
-21.041
-24.869
-28.413
-31.676
-34.66
-37.367
-39.802
-41.97
-43.878
-45.532
-46.94
-48.112
-49.057
-49.785
-50.307
-50.633
-50.777
-50.748
-50.561
-50.226
-49.756
-49.162
-48.456
-47.65
-46.755
-45.783
-44.743
-43.647
-42.505
-41.326
-40.12
-38.896
-37.662
-36.427
-35.197
-33.98
-32.784
-31.615
-30.48
-29.384
-28.333
-27.333
-26.389
-25.505
-24.686
-23.935
-23.255
-22.649
-22.12
-21.669
-21.298
-21.008
-20.8
-20.675
-20.634
-20.674
-20.797
-21
-21.283
-21.643
-22.077
-22.584
-23.158
-23.798
-24.499
-25.256
-26.065
-26.919
-27.813
-28.74
-29.693
-30.664
-31.646
-32.63
-33.608
-34.571
-35.511
-36.419
-37.286
-38.105
-38.866
-39.562
-40.186
-40.727
-41.18
-41.538
-41.792
-41.939
-41.971
-41.886
-41.677
-41.343
-40.881
-40.289
-39.566
-38.713
-37.729
-36.617
-35.381
-34.023
-32.551
-30.969
-29.286
-27.51
-25.651
-23.721
-21.732
-19.696
-17.625
-15.535
-13.439
-11.355
-9.295
-7.277
-5.316
-3.431
-1.641
0.038
1.586
2.986
4.222
5.274
6.129
6.775
7.2
7.395
7.352
7.06
6.512
5.703
4.626
3.279
1.662
-0.227
-2.379
-4.783
-7.425
-10.29
-13.369
-16.661
-20.157
-23.847
-27.72
-31.759
-35.946
-40.252
-44.637
-49.046
-53.427
-57.725
-61.901
-65.925
-69.757
-73.361
-76.685
-79.667
-82.263
-84.437
-86.151
-87.378
-88.124
-88.426
-88.366
-88.072
-87.648
-87.172
-86.73
-86.414
-86.334
-86.613
-87.386
-88.741
-90.802
-93.78
-97.72
-102.512
-107.841
-113.069
-117.553
-120.817
-122.205
-120.932
-116.801
-110.024
-101.421
-92.773
-85.467
-80.344
-78.769
-81.953
-89.815
-101.421
-114.254
-123.956
-127.124
-120.707
-100.175
-61.561
-2.639
75.305
165.929
261.764
358.519
457.565
561.304
665.429
755.929
809.005
804.059
732.366
600.401
429.89
240.355
51.346
-119.34
-264.107
-369.99
-433.228
-464.48
-471.052
-466.277
-457.738
-439.973
-411.86
-373.365
-327.309
-282.064
-242.1
-208.518
-181.439
-159.299
-141.535
-128.723
-119.921
-113.931
-109.754
-105.829
-101.551
-97.005
-91.617
-84.649
-76.175
-66.425
-56.093
-46.628
-38.684
-32.334
-27.885
-25.517
-25.162
-26.698
-29.553
-32.738
-35.684
-38.119
-39.819
-40.715
-40.698
-39.631
-37.556
-34.637
-30.989
-26.696
-21.802
-16.311
-10.306
-3.928
2.662
9.305
15.891
22.354
28.63
34.663
40.405
45.834
50.957
55.799
60.376
64.702
68.789
72.653
76.33
79.866
83.312
86.722
90.135
93.575
97.061
100.602
104.203
107.862
111.567
115.298
119.042
122.786
126.519
130.23
133.903
137.519
141.061
144.505
147.833
151.024
154.059
156.92
159.59
162.053
164.294
166.299
168.054
169.544
170.755
171.67
172.276
172.56
172.51
172.117
171.371
170.268
168.802
166.974
164.783
162.232
159.327
156.073
152.479
148.555
144.312
139.765
134.928
129.817
124.45
118.845
113.022
107.003
100.809
94.462
87.986
81.403
74.739
68.016
61.258
54.491
47.736
41.017
34.358
27.779
21.303
14.949
8.737
2.683
-3.195
-8.883
-14.368
-19.639
-24.686
-29.5
-34.075
-38.405
-42.486
-46.316
-49.894
-53.218
-56.29
-59.111
-61.686
-64.018
-66.111
-67.973
-69.608
-71.026
-72.232
-73.237
-74.049
-74.677
-75.131
-75.42
-75.554
-75.544
-75.401
-75.134
-74.754
-74.271
-73.695
-73.037
-72.306
-71.511
-70.66
-69.763
-68.826
-67.858
-66.866
-65.857
-64.838
-63.814
-62.793
-61.779
-60.78
-59.798
-58.841
-57.912
-57.016
-56.158
-55.34
-54.568
-53.845
-53.174
-52.56
-52.004
-51.511
-51.081
-50.718
-50.423
-50.196
-50.039
-49.952
-49.934
-49.986
-50.106
-50.294
-50.549
-50.867
-51.248
-51.687
-52.182
-52.729
-53.324
-53.961
-54.635
-55.341
-56.073
-56.824
-57.587
-58.353
-59.116
-59.867
-60.596
-61.294
-61.952
-62.561
-63.11
-63.591
-63.994
-64.31
-64.532
-64.651
-64.66
-64.551
-64.318
-63.954
-63.455
-62.816
-62.033
-61.104
-60.027
-58.802
-57.428
-55.908
-54.243
-52.437
-50.495
-48.421
-46.223
-43.909
-41.487
-38.968
-36.364
-33.688
-30.953
-28.175
-25.37
-22.553
-19.742
-16.954
-14.205
-11.514
-8.898
-6.373
-3.958
-1.67
0.47
2.444
4.234
5.823
7.193
8.328
9.215
9.843
10.205
10.297
10.114
9.653
8.912
7.886
6.578
4.991
3.129
1
-1.386
-4.014
-6.861
-9.902
-13.119
-16.495
-20.026
-23.706
-27.525
-31.468
-35.518
-39.647
-43.822
-48.001
-52.122
-56.126
-59.957
-63.563
-66.908
-69.964
-72.684
-75.021
-76.917
-78.308
-79.156
-79.429
-79.118
-78.257
-76.902
-75.143
-73.103
-70.89
-68.627
-66.469
-64.541
-62.975
-61.918
-61.45
-61.739
-63.06
-65.464
-68.83
-72.83
-76.779
-80.07
-82.294
-82.764
-80.684
-75.856
-68.494
-59.608
-51.184
-44.755
-41.383
-42.38
-48.671
-59.996
-75.099
-91.038
-103.262
-107.482
-99.411
-74.498
-29.072
36.49
117.95
210.246
308.302
413.811
531.611
656.316
772.299
852.43
867.308
808.037
686.479
527.169
359.222
196.246
38.407
-111.006
-248.568
-362.593
-437.154
-473.74
-478.258
-459.99
-432.741
-397.797
-356.415
-313.431
-270.653
-233.344
-204.963
-184.397
-170.468
-161.136
-153.687
-146.066
-136.482
-123.867
-108.332
-90.654
-71.898
-53.083
-35.176
-19.153
-5.816
4.424
11.593
15.995
18.063
18.189
16.721
14.042
10.555
6.625
2.551
-1.422
-5.081
-8.22
-10.63
-12.149
-12.687
-12.209
-10.726
-8.276
-4.909
-0.701
4.246
9.821
15.911
22.388
29.131
36.011
42.888
49.647
56.191
62.448
68.378
73.965
79.205
84.111
88.71
93.031
97.115
100.997
104.706
108.276
111.743
115.146
118.534
121.941
125.39
128.896
132.465
136.095
139.784
143.519
147.279
151.044
154.796
158.515
162.189
165.8
169.328
172.751
176.048
179.196
182.176
184.97
187.558
189.92
192.041
193.903
195.494
196.8
197.806
198.497
198.861
198.883
198.555
197.866
196.807
195.372
193.557
191.359
188.78
185.823
182.491
178.791
174.732
170.325
165.582
160.519
155.15
149.495
143.571
137.4
131.004
124.407
117.632
110.705
103.652
96.498
89.27
81.995
74.7
67.409
60.15
52.948
45.827
38.81
31.921
25.181
18.61
12.227
6.051
0.095
-5.625
-11.099
-16.315
-21.265
-25.942
-30.341
-34.459
-38.293
-41.842
-45.109
-48.095
-50.804
-53.243
-55.418
-57.337
-59.01
-60.445
-61.654
-62.649
-63.44
-64.042
-64.466
-64.725
-64.834
-64.804
-64.649
-64.382
-64.016
-63.563
-63.034
-62.443
-61.798
-61.111
-60.392
-59.648
-58.891
-58.127
-57.364
-56.609
-55.869
-55.15
-54.457
-53.796
-53.169
-52.58
-52.033
-51.53
-51.072
-50.662
-50.301
-49.99
-49.729
-49.519
-49.36
-49.252
-49.194
-49.187
-49.229
-49.321
-49.461
-49.649
-49.885
-50.168
-50.497
-50.872
-51.291
-51.754
-52.258
-52.802
-53.384
-54
-54.649
-55.328
-56.033
-56.762
-57.51
-58.275
-59.052
-59.837
-60.627
-61.415
-62.197
-62.968
-63.723
-64.456
-65.162
-65.834
-66.467
-67.055
-67.592
-68.071
-68.487
-68.832
-69.1
-69.285
-69.381
-69.383
-69.285
-69.082
-68.771
-68.349
-67.813
-67.161
-66.393
-65.508
-64.505
-63.388
-62.155
-60.811
-59.357
-57.797
-56.136
-54.379
-52.532
-50.602
-48.595
-46.52
-44.386
-42.202
-39.978
-37.724
-35.452
-33.174
-30.904
-28.654
-26.439
-24.273
-22.171
-20.148
-18.22
-16.403
-14.711
-13.157
-11.757
-10.523
-9.467
-8.599
-7.925
-7.454
-7.192
-7.146
-7.322
-7.724
-8.357
-9.223
-10.324
-11.662
-13.231
-15.021
-17.021
-19.22
-21.605
-24.175
-26.924
-29.838
-32.906
-36.114
-39.443
-42.87
-46.359
-49.852
-53.3
-56.657
-59.881
-62.952
-65.842
-68.52
-70.961
-73.12
-74.958
-76.459
-77.596
-78.338
-78.685
-78.656
-78.317
-77.795
-77.206
-76.641
-76.17
-75.843
-75.741
-75.959
-76.581
-77.714
-79.414
-81.762
-84.964
-89.066
-93.914
-99.168
-104.134
-108.09
-110.578
-110.95
-108.401
-102.775
-94.316
-83.938
-73.629
-64.93
-58.747
-56.491
-59.386
-67.374
-79.653
-93.65
-104.758
-109.49
-104.718
-86.068
-49.79
6.557
82.024
170.546
264.795
360.434
459.652
566.324
675.747
773.378
832.611
828.549
756.686
626.592
461.843
286.008
105.161
-73.774
-241.917
-388.277
-490.739
-542.372
-554.238
-538.335
-512.775
-485.675
-450.403
-406.036
-354.142
-297.781
-245.191
-200.911
-165.053
-137.658
-118.482
-106.075
-98.574
-94.63
-92.386
-89.919
-86.774
-82.461
-75.816
-66.802
-56.039
-43.914
-31.602
-20.572
-11.308
-4.208
0.151
1.848
1.132
-1.761
-6.056
-10.835
-15.583
-19.845
-23.246
-25.694
-27.069
-27.276
-26.408
-24.578
-21.853
-18.319
-14.028
-9.014
-3.364
2.812
9.394
16.246
23.24
30.233
37.102
43.761
50.145
56.227
61.999
67.451
72.589
77.438
82.023
86.378
90.536
94.52
98.363
102.107
105.796
109.479
113.192
116.952
120.77
124.649
128.586
132.576
136.608
140.658
144.704
148.73
152.716
156.651
160.518
164.295
167.96
171.49
174.866
178.068
181.079
183.879
186.451
188.776
190.841
192.634
194.141
195.348
196.241
196.807
197.034
196.912
196.431
195.583
194.36
192.759
190.778
188.417
185.679
182.567
179.088
175.25
171.065
166.543
161.699
156.547
151.105
145.392
139.427
133.232
126.828
120.24
113.492
106.609
99.616
92.54
85.405
78.237
71.062
63.905
56.79
49.742
42.784
35.939
29.228
22.672
16.292
10.104
4.127
-1.626
-7.14
-12.405
-17.41
-22.146
-26.608
-30.789
-34.688
-38.3
-41.627
-44.669
-47.428
-49.91
-52.119
-54.063
-55.749
-57.186
-58.384
-59.354
-60.106
-60.651
-61.001
-61.168
-61.165
-61.004
-60.698
-60.259
-59.7
-59.034
-58.275
-57.433
-56.521
-55.551
-54.534
-53.48
-52.4
-51.304
-50.2
-49.097
-48.003
-46.926
-45.872
-44.848
-43.859
-42.909
-42.004
-41.145
-40.338
-39.583
-38.884
-38.243
-37.662
-37.142
-36.685
-36.292
-35.965
-35.705
-35.513
-35.389
-35.333
-35.346
-35.427
-35.577
-35.794
-36.078
-36.429
-36.845
-37.325
-37.867
-38.47
-39.131
-39.847
-40.616
-41.434
-42.299
-43.207
-44.153
-45.134
-46.145
-47.182
-48.238
-49.309
-50.387
-51.466
-52.539
-53.597
-54.633
-55.638
-56.603
-57.52
-58.38
-59.173
-59.892
-60.527
-61.07
-61.513
-61.847
-62.065
-62.158
-62.12
-61.946
-61.629
-61.166
-60.552
-59.784
-58.862
-57.784
-56.55
-55.16
-53.618
-51.926
-50.088
-48.11
-46
-43.765
-41.415
-38.96
-36.413
-33.788
-31.099
-28.36
-25.588
-22.798
-20.01
-17.24
-14.506
-11.829
-9.225
-6.715
-4.32
-2.059
0.047
1.979
3.717
5.244
6.542
7.595
8.394
8.928
9.187
9.165
8.857
8.257
7.364
6.176
4.69
2.909
0.837
-1.514
-4.128
-6.988
-10.077
-13.379
-16.885
-20.577
-24.437
-28.453
-32.606
-36.875
-41.231
-45.622
-49.981
-54.25
-58.371
-62.299
-65.995
-69.409
-72.5
-75.219
-77.521
-79.381
-80.772
-81.652
-82.003
-81.823
-81.148
-80.097
-78.804
-77.396
-75.992
-74.661
-73.496
-72.634
-72.189
-72.302
-73.09
-74.57
-76.851
-80.121
-84.346
-89.334
-94.635
-99.377
-102.778
-104.257
-103.069
-98.689
-91.146
-80.802
-68.86
-57.23
-47.553
-41.429
-40.312
-44.547
-53.354
-64.864
-75.616
-81.679
-78.808
-61.75
-26.387
29.674
105.088
193.474
290.068
391.509
495.965
604.411
705.926
781.213
811.812
779.606
686.224
548.68
385.052
213.928
42.97
-122.885
-276.269
-406.578
-499.921
-555.728
-577.908
-573.743
-554.803
-521.003
-472.925
-415.476
-351.66
-288.451
-231.761
-183.371
-144.755
-116.641
-98.363
-88.536
-84.882
-85.156
-87.332
-89.372
-89.916
-87.643
-81.774
-72.682
-61.255
-48.41
-35.351
-23.461
-13.598
-6.502
-2.576
-1.538
-2.953
-6.311
-10.877
-15.852
-20.658
-24.783
-27.897
-29.937
-30.847
-30.627
-29.354
-27.106
-23.955
-19.978
-15.244
-9.818
-3.795
2.714
9.593
16.715
23.945
31.134
38.164
44.96
51.465
57.664
63.543
69.085
74.297
79.206
83.843
88.244
92.442
96.46
100.331
104.098
107.803
111.496
115.21
118.956
122.743
126.572
130.439
134.341
138.264
142.183
146.079
149.932
153.728
157.454
161.094
164.625
168.028
171.281
174.367
177.269
179.972
182.457
184.71
186.716
188.464
189.942
191.139
192.042
192.638
192.915
192.862
192.471
191.732
190.638
189.184
187.367
185.186
182.642
179.738
176.479
172.869
168.919
164.636
160.034
155.126
149.924
144.447
138.71
132.734
126.537
120.139
113.561
106.825
99.953
92.967
85.892
78.749
71.564
64.359
57.159
49.987
42.867
35.822
28.873
22.043
15.35
8.815
2.454
-3.714
-9.675
-15.416
-20.923
-26.186
-31.195
-35.943
-40.422
-44.629
-48.56
-52.212
-55.586
-58.68
-61.498
-64.041
-66.313
-68.317
-70.061
-71.549
-72.789
-73.789
-74.558
-75.107
-75.444
-75.582
-75.532
-75.306
-74.917
-74.375
-73.695
-72.888
-71.968
-70.946
-69.836
-68.649
-67.397
-66.093
-64.747
-63.37
-61.972
-60.562
-59.151
-57.746
-56.356
-54.989
-53.653
-52.354
-51.099
-49.895
-48.748
-47.663
-46.645
-45.7
-44.829
-44.037
-43.327
-42.699
-42.157
-41.7
-41.329
-41.044
-40.844
-40.729
-40.695
-40.742
-40.866
-41.064
-41.331
-41.665
-42.06
-42.511
-43.015
-43.564
-44.154
-44.78
-45.433
-46.109
-46.799
-47.497
-48.194
-48.883
-49.555
-50.203
-50.817
-51.389
-51.912
-52.377
-52.776
-53.101
-53.345
-53.5
-53.561
-53.52
-53.371
-53.109
-52.729
-52.228
-51.603
-50.85
-49.97
-48.96
-47.822
-46.557
-45.165
-43.649
-42.011
-40.256
-38.389
-36.416
-34.343
-32.177
-29.927
-27.604
-25.216
-22.776
-20.294
-17.784
-15.256
-12.726
-10.208
-7.715
-5.263
-2.866
-0.54
1.697
3.827
5.835
7.703
9.417
10.96
12.319
13.479
14.433
15.171
15.686
15.97
16.015
15.815
15.366
14.661
13.699
12.477
10.994
9.254
7.271
5.056
2.618
-0.032
-2.896
-5.967
-9.23
-12.674
-16.285
-20.04
-23.914
-27.861
-31.818
-35.727
-39.537
-43.202
-46.699
-49.988
-53.026
-55.778
-58.19
-60.229
-61.888
-63.136
-63.953
-64.354
-64.378
-64.124
-63.746
-63.373
-63.104
-63.022
-63.192
-63.727
-64.753
-66.373
-68.708
-71.788
-75.663
-80.503
-86.305
-92.865
-99.796
-106.341
-111.739
-115.551
-117.177
-115.905
-111.624
-104.485
-95.183
-85.495
-76.781
-69.787
-65.775
-65.695
-69.278
-75.838
-83.352
-87.672
-85.531
-74.529
-50.712
-10.685
46.669
122.03
211.65
306.179
400.667
491.77
575.876
654.842
720.376
756.963
753.903
697.546
588.152
438.037
255.981
59.806
-132.824
-305.446
-435.743
-513.057
-541.391
-535.801
-516.45
-495.989
-475.354
-447.331
-407.867
-359.551
-308.228
-261.537
-223.064
-192.036
-167.926
-150.47
-138.43
-130.18
-123.823
-117.082
-108.986
-99.805
-89.301
-76.852
-62.638
-47.33
-32.016
-18.382
-7.264
1.353
7.309
10.432
10.81
8.658
4.58
-0.404
-5.636
-10.807
-15.598
-19.77
-23.091
-25.316
-26.385
-26.417
-25.48
-23.607
-20.83
-17.158
-12.664
-7.487
-1.759
4.403
10.883
17.58
24.368
31.092
37.635
43.923
49.912
55.594
60.964
66.012
70.754
75.227
79.474
83.54
87.465
91.275
95.004
98.688
102.367
106.087
109.878
113.753
117.719
121.775
125.916
130.135
134.414
138.726
143.044
147.345
151.607
155.814
159.943
163.968
167.863
171.604
175.168
178.531
181.672
184.567
187.197
189.541
191.583
193.308
194.702
195.747
196.432
196.742
196.667
196.197
195.324
194.042
192.348
190.24
187.72
184.793
181.463
177.74
173.634
169.159
164.328
159.159
153.669
147.879
141.81
135.486
128.932
122.171
115.231
108.138
100.921
93.607
86.225
78.803
71.369
63.952
56.578
49.274
42.066
34.978
28.034
21.255
14.664
8.279
2.117
-3.805
-9.474
-14.877
-20.005
-24.849
-29.402
-33.66
-37.621
-41.282
-44.644
-47.709
-50.479
-52.959
-55.155
-57.073
-58.721
-60.108
-61.244
-62.14
-62.807
-63.257
-63.502
-63.557
-63.434
-63.147
-62.709
-62.135
-61.438
-60.631
-59.729
-58.745
-57.69
-56.578
-55.42
-54.227
-53.009
-51.778
-50.541
-49.308
-48.087
-46.885
-45.709
-44.566
-43.463
-42.405
-41.397
-40.445
-39.554
-38.727
-37.968
-37.281
-36.669
-36.132
-35.675
-35.297
-34.999
-34.783
-34.647
-34.591
-34.615
-34.717
-34.894
-35.145
-35.466
-35.855
-36.308
-36.822
-37.392
-38.015
-38.686
-39.401
-40.154
-40.941
-41.755
-42.591
-43.441
-44.298
-45.156
-46.006
-46.839
-47.647
-48.422
-49.155
-49.837
-50.459
-51.013
-51.491
-51.884
-52.185
-52.386
-52.48
-52.461
-52.323
-52.06
-51.668
-51.144
-50.484
-49.686
-48.749
-47.673
-46.456
-45.101
-43.609
-41.982
-40.223
-38.338
-36.331
-34.21
-31.983
-29.658
-27.244
-24.754
-22.198
-19.59
-16.944
-14.273
-11.59
-8.913
-6.257
-3.638
-1.073
1.423
3.832
6.136
8.318
10.359
12.242
13.951
15.469
16.78
17.87
18.73
19.348
19.715
19.827
19.674
19.252
18.556
17.582
16.328
14.795
12.983
10.898
8.556
5.967
3.146
0.108
-3.142
-6.596
-10.237
-14.059
-18.048
-22.184
-26.446
-30.79
-35.16
-39.505
-43.774
-47.919
-51.908
-55.698
-59.246
-62.517
-65.461
-68.036
-70.213
-71.949
-73.211
-73.991
-74.315
-74.266
-73.967
-73.536
-73.073
-72.66
-72.383
-72.373
-72.76
-73.658
-75.191
-77.405
-80.42
-84.478
-89.606
-95.616
-102.094
-108.26
-113.401
-117.073
-118.622
-117.263
-112.843
-105.637
-96.656
-87.899
-80.889
-76.59
-76.236
-80.742
-89.775
-102.041
-114.728
-123.48
-124.262
-113.193
-86.007
-39.105
26.963
107.822
198.809
295.476
399.669
516.16
639.503
753.477
832.755
853.028
805.881
701.17
557.516
388.015
202.287
6.751
-186.596
-349.211
-459.977
-511.452
-512.21
-491.42
-470.237
-455.393
-444.397
-425.26
-392.845
-350.87
-304.815
-260.903
-221.786
-187.395
-157.425
-131.523
-110.213
-93.607
-81.229
-72.956
-68.074
-65.113
-63.253
-61.672
-59.088
-55.111
-49.716
-42.782
-35.071
-27.866
-21.775
-17.264
-14.87
-14.469
-15.828
-18.78
-22.611
-26.462
-29.836
-32.316
-33.636
-33.827
-32.88
-30.777
-27.663
-23.69
-18.977
-13.669
-7.843
-1.565
5.042
11.853
18.728
25.536
32.191
38.615
44.755
50.59
56.109
61.317
66.237
70.883
75.279
79.459
83.449
87.282
90.999
94.64
98.256
101.892
105.573
109.317
113.131
117.012
120.954
124.948
128.973
133.012
137.049
141.066
145.049
148.983
152.847
156.621
160.281
163.806
167.174
170.367
173.368
176.159
178.722
181.044
183.109
184.907
186.42
187.635
188.535
189.109
189.342
189.225
188.746
187.897
186.672
185.068
183.083
180.717
177.975
174.859
171.376
167.535
163.347
158.823
153.976
148.821
143.376
137.657
131.684
125.477
119.059
112.45
105.673
98.751
91.709
84.569
77.357
70.096
62.812
55.527
48.267
41.056
33.917
26.873
19.946
13.156
6.523
0.066
-6.199
-12.257
-18.095
-23.7
-29.062
-34.171
-39.021
-43.604
-47.917
-51.954
-55.716
-59.199
-62.406
-65.337
-67.995
-70.383
-72.505
-74.367
-75.974
-77.333
-78.452
-79.339
-80.003
-80.454
-80.702
-80.759
-80.636
-80.344
-79.897
-79.306
-78.584
-77.742
-76.794
-75.752
-74.627
-73.431
-72.176
-70.873
-69.533
-68.167
-66.785
-65.396
-64.011
-62.637
-61.286
-59.964
-58.68
-57.442
-56.258
-55.135
-54.08
-53.1
-52.2
-51.385
-50.661
-50.03
-49.496
-49.061
-48.728
-48.498
-48.371
-48.347
-48.426
-48.606
-48.885
-49.261
-49.729
-50.287
-50.93
-51.652
-52.448
-53.313
-54.24
-55.222
-56.252
-57.323
-58.425
-59.549
-60.687
-61.829
-62.965
-64.085
-65.177
-66.233
-67.242
-68.193
-69.078
-69.887
-70.609
-71.237
-71.762
-72.175
-72.47
-72.638
-72.674
-72.572
-72.328
-71.939
-71.401
-70.713
-69.874
-68.883
-67.741
-66.45
-65.013
-63.432
-61.712
-59.859
-57.88
-55.784
-53.579
-51.274
-48.881
-46.411
-43.877
-41.291
-38.667
-36.017
-33.358
-30.703
-28.069
-25.472
-22.928
-20.453
-18.066
-15.783
-13.622
-11.598
-9.728
-8.027
-6.512
-5.195
-4.088
-3.202
-2.547
-2.132
-1.966
-2.056
-2.406
-3.019
-3.897
-5.043
-6.459
-8.143
-10.086
-12.278
-14.709
-17.371
-20.261
-23.372
-26.687
-30.189
-33.856
-37.671
-41.611
-45.64
-49.706
-53.747
-57.704
-61.528
-65.181
-68.625
-71.816
-74.703
-77.234
-79.366
-81.08
-82.367
-83.213
-83.615
-83.593
-83.204
-82.568
-81.843
-81.167
-80.667
-80.439
-80.544
-81.079
-82.159
-83.877
-86.339
-89.605
-93.646
-98.527
-104.331
-110.91
-117.99
-125.003
-131.031
-135.33
-137.295
-136.169
-131.472
-123.215
-111.616
-97.763
-83.433
-70.014
-59.056
-52.113
-49.566
-50.842
-54.788
-58.64
-58.564
-51.004
-31.319
5.503
60.048
129.275
210.321
297.657
391.594
499.254
616.198
731.663
824.191
861.008
829.075
730.174
578.302
399.236
204.866
3.589
-192.106
-366.887
-496.599
-566.964
-582.074
-559.81
-523.501
-486.658
-449.957
-406.947
-353.682
-292.931
-231.625
-177.85
-135.652
-105.549
-86.799
-77.301
-74.733
-76.846
-81
-84.659
-86.18
-84.373
-78.65
-69.224
-56.819
-42.555
-27.86
-14.333
-3.023
5.419
10.652
12.826
12.299
9.566
5.355
0.529
-4.322
-8.778
-12.491
-15.348
-17.254
-18.122
-18.001
-16.974
-15.074
-12.341
-8.812
-4.512
0.477
6.042
12.084
18.488
25.147
31.947
38.744
45.425
51.918
58.174
64.176
69.909
75.356
80.518
85.423
90.103
94.594
98.927
103.123
107.212
111.231
115.216
119.212
123.245
127.327
131.464
135.652
139.887
144.162
148.461
152.756
157.023
161.24
165.389
169.453
173.414
177.246
180.927
184.433
187.744
190.841
193.704
196.314
198.652
200.701
202.449
203.884
204.993
205.763
206.182
206.239
205.924
205.231
204.154
202.686
200.827
198.576
195.936
192.914
189.516
185.751
181.632
177.17
172.382
167.284
161.893
156.23
150.313
144.166
137.811
131.272
124.573
117.739
110.796
103.771
96.688
89.575
82.456
75.358
68.305
61.322
54.432
47.658
41.022
34.544
28.242
22.135
16.239
10.567
5.132
-0.056
-4.988
-9.658
-14.06
-18.19
-22.047
-25.63
-28.939
-31.976
-34.744
-37.248
-39.493
-41.486
-43.234
-44.747
-46.034
-47.104
-47.97
-48.641
-49.131
-49.451
-49.614
-49.631
-49.517
-49.283
-48.942
-48.508
-47.991
-47.403
-46.756
-46.061
-45.326
-44.562
-43.777
-42.979
-42.176
-41.375
-40.583
-39.806
-39.051
-38.322
-37.626
-36.967
-36.348
-35.775
-35.249
-34.774
-34.353
-33.988
-33.68
-33.432
-33.243
-33.115
-33.048
-33.043
-33.099
-33.215
-33.391
-33.625
-33.916
-34.263
-34.665
-35.12
-35.626
-36.181
-36.785
-37.434
-38.126
-38.857
-39.625
-40.426
-41.255
-42.109
-42.98
-43.866
-44.758
-45.653
-46.543
-47.423
-48.284
-49.121
-49.926
-50.691
-51.411
-52.078
-52.686
-53.226
-53.694
-54.082
-54.385
-54.598
-54.714
-54.727
-54.634
-54.43
-54.11
-53.673
-53.114
-52.432
-51.626
-50.696
-49.642
-48.466
-47.17
-45.757
-44.231
-42.598
-40.864
-39.036
-37.122
-35.131
-33.071
-30.955
-28.792
-26.595
-24.374
-22.143
-19.915
-17.703
-15.52
-13.382
-11.302
-9.297
-7.382
-5.573
-3.884
-2.33
-0.926
0.313
1.376
2.252
2.929
3.401
3.658
3.692
3.495
3.065
2.399
1.492
0.344
-1.048
-2.685
-4.557
-6.655
-8.969
-11.492
-14.221
-17.149
-20.26
-23.536
-26.957
-30.505
-34.159
-37.888
-41.642
-45.364
-48.998
-52.498
-55.829
-58.961
-61.852
-64.453
-66.722
-68.62
-70.135
-71.268
-72.005
-72.339
-72.292
-71.914
-71.312
-70.638
-70.011
-69.54
-69.32
-69.405
-69.887
-70.885
-72.475
-74.753
-77.773
-81.514
-86.06
-91.523
-97.784
-104.576
-111.378
-117.348
-121.804
-124.159
-123.617
-119.616
-112.071
-101.284
-88.404
-75.095
-62.695
-52.728
-46.829
-45.727
-49.229
-55.864
-62.443
-65.611
-61.972
-46.905
-15.837
34.675
104.291
187.647
278.593
373.249
473.73
583.557
696.964
797.577
859.336
858.967
789.712
659.935
487.978
291.201
82.509
-124.216
-310.278
-453.658
-540.022
-570.374
-561.459
-534.077
-500.736
-464.323
-419.872
-365.022
-304.469
-245.25
-194.802
-157.348
-133.516
-121.702
-118.791
-120.948
-123.868
-124.809
-122.71
-116.775
-106.436
-91.887
-73.874
-54.189
-35.537
-19.506
-6.61
2.838
8.787
11.297
10.483
7.024
2.116
-3.399
-9.043
-14.477
-19.554
-24.056
-27.666
-30.227
-31.753
-32.258
-31.769
-30.291
-27.778
-24.253
-19.823
-14.612
-8.764
-2.429
4.265
11.187
18.186
25.136
31.927
38.472
44.725
50.661
56.269
61.551
66.52
71.197
75.621
79.837
83.884
87.804
91.638
95.425
99.217
103.048
106.943
110.915
114.966
119.094
123.292
127.549
131.841
136.148
140.447
144.719
148.944
153.104
157.176
161.135
164.956
168.617
172.096
175.375
178.434
181.254
183.818
186.111
188.12
189.834
191.238
192.318
193.061
193.456
193.493
193.164
192.459
191.374
189.905
188.051
185.813
183.195
180.201
176.838
173.115
169.043
164.634
159.903
154.865
149.538
143.94
138.093
132.018
125.738
119.275
112.654
105.898
99.033
92.082
85.07
78.021
70.959
63.906
56.885
49.92
43.03
36.238
29.562
23.022
16.635
10.419
4.387
-1.447
-7.07
-12.471
-17.641
-22.572
-27.258
-31.693
-35.875
-39.8
-43.468
-46.88
-50.038
-52.944
-55.603
-58.02
-60.201
-62.152
-63.88
-65.393
-66.699
-67.805
-68.72
-69.452
-70.011
-70.405
-70.644
-70.736
-70.692
-70.52
-70.231
-69.833
-69.337
-68.751
-68.085
-67.347
-66.548
-65.695
-64.797
-63.863
-62.901
-61.917
-60.92
-59.916
-58.912
-57.913
-56.925
-55.954
-55.004
-54.081
-53.189
-52.334
-51.52
-50.753
-50.035
-49.373
-48.769
-48.228
-47.754
-47.348
-47.015
-46.757
-46.575
-46.471
-46.446
-46.502
-46.637
-46.852
-47.144
-47.513
-47.956
-48.469
-49.05
-49.694
-50.397
-51.155
-51.963
-52.815
-53.706
-54.63
-55.581
-56.55
-57.532
-58.517
-59.498
-60.465
-61.411
-62.326
-63.201
-64.028
-64.798
-65.502
-66.132
-66.679
-67.135
-67.494
-67.747
-67.889
-67.913
-67.814
-67.588
-67.232
-66.744
-66.122
-65.366
-64.475
-63.451
-62.294
-61.008
-59.595
-58.058
-56.403
-54.635
-52.761
-50.789
-48.728
-46.585
-44.372
-42.099
-39.777
-37.418
-35.033
-32.635
-30.238
-27.856
-25.501
-23.189
-20.934
-18.751
-16.656
-14.664
-12.788
-11.045
-9.447
-8.009
-6.743
-5.661
-4.772
-4.085
-3.607
-3.346
-3.307
-3.497
-3.919
-4.574
-5.468
-6.6
-7.973
-9.582
-11.418
-13.47
-15.73
-18.187
-20.839
-23.681
-26.699
-29.879
-33.212
-36.678
-40.26
-43.925
-47.615
-51.28
-54.87
-58.339
-61.661
-64.806
-67.731
-70.399
-72.762
-74.774
-76.419
-77.675
-78.511
-78.923
-78.922
-78.566
-77.992
-77.335
-76.709
-76.219
-75.91
-75.853
-76.168
-76.951
-78.337
-80.45
-83.314
-87.036
-91.79
-97.519
-104.026
-110.85
-117.119
-122.097
-125.219
-125.74
-123.171
-117.509
-109.057
-98.98
-89.053
-80.611
-74.954
-73.391
-76.256
-83.025
-92.233
-100.577
-104.118
-99.326
-82.237
-49.165
2.009
72.045
159.597
260.171
368.027
476.744
577.749
661.767
720.827
747.687
739.16
697.688
623.738
518.269
383.109
217.02
31.035
-154.161
-318.416
-438.2
-506.723
-535.805
-537.033
-525.575
-507.995
-478.095
-434.929
-380.641
-319.995
-262.007
-211.853
-170.6
-138.588
-115.689
-101.162
-93.524
-90.626
-90.02
-89.441
-87.938
-85.06
-79.805
-71.835
-61.613
-49.879
-38.002
-27.578
-19.256
-13.266
-10.014
-9.444
-11.263
-15.121
-20.178
-25.419
-30.289
-34.434
-37.557
-39.607
-40.493
-40.1
-38.517
-35.885
-32.293
-27.847
-22.617
-16.642
-10.048
-2.998
4.337
11.765
19.155
26.417
33.459
40.223
46.667
52.759
58.505
63.925
69.031
73.846
78.394
82.698
86.802
90.758
94.621
98.454
102.302
106.193
110.147
114.175
118.278
122.454
126.692
130.971
135.274
139.589
143.9
148.195
152.456
156.661
160.79
164.818
168.72
172.475
176.063
179.461
182.652
185.616
188.337
190.799
192.988
194.885
196.475
197.739
198.664
199.234
199.437
199.26
198.694
197.732
196.368
194.6
192.427
189.852
186.877
183.509
179.754
175.623
171.128
166.282
161.1
155.601
149.802
143.726
137.395
130.834
124.067
117.121
110.022
102.797
95.474
88.081
80.645
73.193
65.752
58.349
51.009
43.757
36.618
29.614
22.767
16.096
9.62
3.354
-2.687
-8.489
-14.042
-19.335
-24.361
-29.112
-33.585
-37.777
-41.684
-45.309
-48.652
-51.717
-54.509
-57.034
-59.298
-61.311
-63.081
-64.618
-65.931
-67.032
-67.933
-68.643
-69.176
-69.543
-69.755
-69.827
-69.767
-69.59
-69.304
-68.922
-68.453
-67.907
-67.294
-66.623
-65.902
-65.139
-64.342
-63.518
-62.675
-61.817
-60.951
-60.082
-59.214
-58.35
-57.495
-56.652
-55.823
-55.012
-54.22
-53.451
-52.706
-51.988
-51.299
-50.64
-50.014
-49.421
-48.866
-48.348
-47.87
-47.434
-47.041
-46.695
-46.396
-46.147
-45.948
-45.803
-45.711
-45.674
-45.693
-45.769
-45.902
-46.092
-46.34
-46.645
-47.006
-47.423
-47.894
-48.418
-48.992
-49.613
-50.278
-50.983
-51.723
-52.494
-53.29
-54.105
-54.933
-55.767
-56.599
-57.423
-58.229
-59.01
-59.758
-60.464
-61.119
-61.715
-62.244
-62.697
-63.068
-63.347
-63.529
-63.605
-63.569
-63.415
-63.139
-62.735
-62.201
-61.532
-60.726
-59.784
-58.704
-57.487
-56.136
-54.652
-53.04
-51.303
-49.449
-47.484
-45.416
-43.253
-41.005
-38.684
-36.302
-33.87
-31.402
-28.911
-26.413
-23.923
-21.455
-19.026
-16.652
-14.348
-12.133
-10.025
-8.04
-6.196
-4.509
-2.996
-1.671
-0.549
0.36
1.048
1.504
1.723
1.698
1.424
0.897
0.112
-0.932
-2.234
-3.795
-5.605
-7.651
-9.92
-12.396
-15.065
-17.925
-20.961
-24.159
-27.506
-30.988
-34.583
-38.267
-41.995
-45.707
-49.355
-52.888
-56.269
-59.475
-62.472
-65.225
-67.706
-69.864
-71.671
-73.109
-74.14
-74.741
-74.912
-74.678
-74.134
-73.414
-72.629
-71.87
-71.185
-70.621
-70.277
-70.252
-70.65
-71.578
-73.059
-75.187
-78.188
-82.097
-86.734
-91.651
-95.988
-98.948
-100.041
-98.643
-94.09
-86.3
-75.612
-63.3
-51.666
-42.548
-37.262
-37.123
-42.869
-54.176
-69.776
-86.218
-98.421
-102.18
-93.113
-66.72
-20.349
47.62
135.146
234.156
338.373
443.483
545.975
646.504
735.504
794.407
808.344
764.263
663.119
521.256
352.27
167.108
-20.829
-199.96
-354.997
-465.194
-525.28
-545.177
-537.07
-518.773
-497.916
-468.368
-428.306
-378.151
-321.879
-268.634
-223.065
-185.606
-155.758
-132.341
-115
-103.09
-94.87
-88.428
-81.965
-74.788
-67.182
-58.949
-49.453
-38.7
-27.153
-15.716
-5.848
1.759
7.188
10.364
11.195
9.803
6.396
1.558
-3.697
-8.686
-13.075
-16.566
-19.041
-20.401
-20.492
-19.329
-17.063
-13.804
-9.655
-4.716
0.975
7.332
14.205
21.445
28.883
36.35
43.723
50.9
57.798
64.37
70.584
76.429
81.915
87.064
91.905
96.472
100.798
104.909
108.849
112.662
116.404
120.136
123.897
127.714
131.603
135.571
139.619
143.743
147.93
152.16
156.413
160.67
164.916
169.136
173.314
177.428
181.455
185.37
189.151
192.778
196.231
199.491
202.538
205.354
207.924
210.232
212.265
214.006
215.439
216.547
217.315
217.731
217.782
217.456
216.745
215.64
214.139
212.238
209.937
207.238
204.145
200.662
196.797
192.562
187.966
183.024
177.752
172.165
166.283
160.126
153.716
147.076
140.229
133.2
126.015
118.699
111.279
103.781
96.232
88.66
81.091
73.552
66.068
58.666
51.369
44.201
37.185
30.342
23.691
17.251
11.038
5.068
-0.647
-6.094
-11.264
-16.149
-20.742
-25.039
-29.036
-32.733
-36.128
-39.224
-42.025
-44.534
-46.757
-48.7
-50.373
-51.783
-52.941
-53.857
-54.544
-55.013
-55.277
-55.35
-55.245
-54.978
-54.561
-54.011
-53.341
-52.567
-51.701
-50.759
-49.754
-48.7
-47.609
-46.494
-45.366
-44.236
-43.115
-42.013
-40.937
-39.896
-38.897
-37.948
-37.053
-36.219
-35.451
-34.752
-34.126
-33.576
-33.104
-32.713
-32.404
-32.177
-32.032
-31.97
-31.988
-32.086
-32.262
-32.513
-32.836
-33.229
-33.687
-34.208
-34.788
-35.421
-36.105
-36.833
-37.603
-38.408
-39.245
-40.109
-40.995
-41.898
-42.815
-43.74
-44.669
-45.596
-46.517
-47.426
-48.317
-49.186
-50.026
-50.832
-51.597
-52.317
-52.985
-53.597
-54.147
-54.629
-55.039
-55.373
-55.626
-55.793
-55.87
-55.855
-55.743
-55.531
-55.218
-54.803
-54.282
-53.655
-52.921
-52.08
-51.132
-50.077
-48.917
-47.652
-46.286
-44.82
-43.259
-41.608
-39.872
-38.057
-36.172
-34.223
-32.222
-30.176
-28.097
-25.995
-23.881
-21.769
-19.671
-17.601
-15.571
-13.596
-11.692
-9.874
-8.157
-6.556
-5.084
-3.757
-2.589
-1.593
-0.777
-0.154
0.269
0.481
0.473
0.238
-0.229
-0.935
-1.884
-3.08
-4.528
-6.223
-8.155
-10.314
-12.69
-15.276
-18.07
-21.063
-24.236
-27.575
-31.065
-34.688
-38.423
-42.232
-46.053
-49.831
-53.518
-57.072
-60.471
-63.679
-66.65
-69.344
-71.714
-73.727
-75.379
-76.647
-77.497
-77.93
-77.959
-77.651
-77.154
-76.585
-76.038
-75.608
-75.323
-75.266
-75.56
-76.286
-77.555
-79.45
-81.951
-85.162
-89.25
-94.121
-99.561
-105.112
-109.917
-113.305
-114.769
-113.562
-109.198
-101.745
-91.491
-79.54
-67.654
-57.203
-49.664
-46.597
-48.433
-54.488
-63.382
-72.267
-77.352
-74.844
-59.895
-27.657
22.697
88.193
165.21
250.438
346.327
458.278
582.324
702.37
790.356
818.891
777.504
675.373
536.723
379.802
210.474
30.455
-157.516
-332.583
-465.03
-536.794
-547.165
-517.803
-475.57
-437.107
-406.071
-374.819
-339.131
-300.53
-262.921
-232.741
-212.228
-199.267
-192.087
-187.846
-182.691
-174.94
-164.042
-149.75
-132.941
-114.689
-95.308
-75.458
-56.944
-40.867
-27.661
-17.616
-10.266
-5.154
-2.339
-1.738
-2.765
-4.913
-7.741
-10.819
-14.087
-17.475
-20.7
-23.479
-25.574
-26.83
-27.211
-26.745
-25.415
-23.204
-20.13
-16.242
-11.645
-6.464
-0.812
5.217
11.558
18.13
24.833
31.542
38.118
44.473
50.564
56.372
61.89
67.109
72.027
76.667
81.078
85.305
89.381
93.332
97.165
100.902
104.575
108.218
111.874
115.566
119.304
123.093
126.934
130.825
134.757
138.713
142.662
146.581
150.45
154.251
157.97
161.588
165.085
168.437
171.624
174.625
177.42
179.989
182.311
184.369
186.146
187.626
188.799
189.651
190.169
190.343
190.159
189.609
188.683
187.375
185.679
183.591
181.112
178.242
174.986
171.35
167.344
162.978
158.265
153.22
147.859
142.2
136.261
130.064
123.632
116.986
110.15
103.15
96.011
88.758
81.418
74.018
66.582
59.137
51.708
44.321
37
29.769
22.651
15.669
8.844
2.197
-4.254
-10.491
-16.498
-22.26
-27.767
-33.007
-37.972
-42.656
-47.052
-51.159
-54.974
-58.498
-61.73
-64.675
-67.335
-69.717
-71.827
-73.671
-75.258
-76.598
-77.7
-78.575
-79.232
-79.683
-79.941
-80.015
-79.92
-79.666
-79.266
-78.734
-78.083
-77.324
-76.471
-75.537
-74.534
-73.474
-72.368
-71.227
-70.062
-68.883
-67.698
-66.518
-65.349
-64.2
-63.078
-61.99
-60.94
-59.936
-58.981
-58.08
-57.238
-56.457
-55.742
-55.095
-54.518
-54.015
-53.587
-53.237
-52.965
-52.773
-52.66
-52.627
-52.674
-52.798
-52.998
-53.271
-53.616
-54.028
-54.503
-55.038
-55.627
-56.265
-56.948
-57.67
-58.423
-59.202
-60
-60.81
-61.625
-62.436
-63.238
-64.022
-64.779
-65.504
-66.187
-66.821
-67.398
-67.91
-68.349
-68.707
-68.977
-69.151
-69.221
-69.183
-69.028
-68.753
-68.354
-67.826
-67.166
-66.374
-65.448
-64.389
-63.197
-61.874
-60.423
-58.848
-57.152
-55.343
-53.426
-51.41
-49.301
-47.11
-44.846
-42.52
-40.142
-37.724
-35.278
-32.817
-30.352
-27.9
-25.474
-23.088
-20.759
-18.501
-16.333
-14.271
-12.332
-10.531
-8.885
-7.408
-6.116
-5.02
-4.132
-3.459
-3.009
-2.791
-2.809
-3.071
-3.577
-4.331
-5.336
-6.591
-8.099
-9.854
-11.845
-14.061
-16.492
-19.126
-21.961
-24.992
-28.201
-31.574
-35.096
-38.747
-42.504
-46.33
-50.16
-53.935
-57.6
-61.1
-64.405
-67.477
-70.27
-72.748
-74.862
-76.57
-77.862
-78.719
-79.116
-79.064
-78.584
-77.745
-76.698
-75.587
-74.544
-73.698
-73.113
-72.877
-73.112
-73.9
-75.353
-77.567
-80.547
-84.377
-89.197
-94.925
-101.337
-107.988
-114.076
-118.916
-121.915
-122.271
-119.397
-113.187
-103.924
-92.683
-81.002
-70.078
-61.208
-55.829
-54.6
-57.3
-62.505
-67.203
-68.217
-62.364
-45.58
-13.863
35.83
102.889
182.251
268.359
357.615
452.49
557.218
666.889
766.811
830.436
833.006
767.553
641.17
479.153
305.55
131.478
-31.27
-181.756
-314.892
-416.837
-488.497
-530.254
-545.399
-544.847
-527.468
-492.446
-443.879
-383.97
-320.351
-259.764
-204.491
-156.939
-118.307
-89.303
-70.369
-60.355
-56.979
-58.292
-62.392
-67.128
-70.873
-71.981
-69.373
-63.149
-54.052
-42.965
-31.112
-19.988
-10.584
-3.743
0.039
0.956
-0.6
-4.109
-8.797
-13.796
-18.474
-22.349
-25.13
-26.795
-27.329
-26.747
-25.139
-22.612
-19.254
-15.144
-10.344
-4.897
1.124
7.603
14.422
21.441
28.512
35.519
42.376
49.023
55.429
61.582
67.467
73.086
78.458
83.605
88.553
93.329
97.951
102.447
106.854
111.215
115.578
119.975
124.42
128.919
133.468
138.061
142.687
147.329
151.96
156.553
161.087
165.539
169.894
174.132
178.227
182.154
185.888
189.404
192.684
195.708
198.455
200.908
203.05
204.868
206.35
207.486
208.264
208.672
208.7
208.339
207.584
206.429
204.871
202.907
200.54
197.772
194.612
191.067
187.147
182.864
178.233
173.269
167.992
162.418
156.569
150.467
144.134
137.594
130.874
123.997
116.991
109.88
102.692
95.453
88.188
80.923
73.683
66.492
59.373
52.35
45.444
38.675
32.063
25.626
19.381
13.342
7.522
1.934
-3.414
-8.513
-13.357
-17.94
-22.26
-26.314
-30.102
-33.625
-36.886
-39.888
-42.636
-45.138
-47.4
-49.43
-51.239
-52.834
-54.225
-55.424
-56.44
-57.283
-57.965
-58.497
-58.889
-59.153
-59.298
-59.336
-59.276
-59.128
-58.901
-58.604
-58.243
-57.827
-57.364
-56.86
-56.322
-55.757
-55.171
-54.569
-53.958
-53.342
-52.724
-52.109
-51.498
-50.894
-50.298
-49.712
-49.137
-48.576
-48.03
-47.5
-46.988
-46.495
-46.024
-45.574
-45.148
-44.745
-44.368
-44.017
-43.696
-43.405
-43.148
-42.928
-42.746
-42.606
-42.509
-42.457
-42.448
-42.485
-42.564
-42.685
-42.844
-43.041
-43.273
-43.54
-43.841
-44.175
-44.544
-44.946
-45.382
-45.85
-46.347
-46.867
-47.403
-47.948
-48.493
-49.029
-49.549
-50.046
-50.512
-50.943
-51.334
-51.679
-51.97
-52.192
-52.329
-52.366
-52.296
-52.116
-51.831
-51.451
-50.996
-50.487
-49.948
-49.395
-48.836
-48.262
-47.655
-46.991
-46.246
-45.41
-44.486
-43.477
-42.381
-41.189
-39.888
-38.448
-36.828
-34.974
-32.827
-30.345
-27.517
-24.362
-20.934
-17.309
-13.579
-9.821
-6.09
-2.437
1.091
4.444
7.57
10.401
12.858
14.846
16.253
16.99
17.003
16.276
14.846
12.778
10.168
7.099
3.638
-0.161
-4.249
-8.577
-13.099
-17.761
-22.514
-27.295
-32.014
-36.594
-40.974
-45.126
-49.049
-52.763
-56.294
-59.65
-62.831
-65.827
-68.627
-71.222
-73.589
-75.704
-77.522
-79.004
-80.14
-80.927
-81.356
-81.416
-81.114
-80.485
-79.601
-78.577
-77.504
-76.446
-75.481
-74.706
-74.241
-74.221
-74.805
-76.082
-78.178
-81.318
-85.522
-90.637
-96.297
-101.747
-106.249
-109.31
-110.25
-108.313
-103.46
-96.024
-86.936
-78.252
-71.53
-67.656
-67.954
-73.319
-83.164
-96.263
-109.962
-119.473
-120.857
-110.836
-85.322
-41.377
21.94
104.443
203.36
312.519
425.568
535.584
633.409
710.19
758.763
772.592
749.562
693.662
606.718
490.94
348.922
179.015
-7.806
-190.298
-347.616
-455.838
-509.947
-524.657
-513.664
-493.489
-470.891
-439.196
-397.743
-348.317
-293.97
-242.122
-196.696
-158.555
-128.488
-106.313
-90.777
-80.426
-74.148
-70.964
-69.834
-69.538
-68.802
-66.313
-61.612
-55.078
-47.067
-38.022
-28.693
-20.077
-13.018
-8.238
-6.039
-6.143
-8.179
-11.696
-16.033
-20.465
-24.443
-27.533
-29.491
-30.305
-29.975
-28.531
-26.081
-22.744
-18.628
-13.828
-8.411
-2.447
3.949
10.628
17.431
24.228
30.921
37.431
43.7
49.688
55.372
60.764
65.885
70.755
75.391
79.816
84.051
88.132
92.104
96.015
99.919
103.861
107.868
111.96
116.147
120.43
124.803
129.251
133.753
138.289
142.842
147.393
151.928
156.426
160.863
165.218
169.462
173.572
177.522
181.291
184.857
188.199
191.298
194.137
196.699
198.968
200.927
202.558
203.844
204.77
205.32
205.483
205.246
204.601
203.54
202.059
200.156
197.833
195.092
191.938
188.379
184.425
180.087
175.382
170.323
164.931
159.225
153.225
146.956
140.441
133.705
126.774
119.675
112.433
105.077
97.634
90.132
82.597
75.057
67.54
60.07
52.674
45.377
38.202
31.171
24.306
17.626
11.15
4.894
-1.129
-6.904
-12.422
-17.674
-22.652
-27.352
-31.77
-35.905
-39.757
-43.328
-46.62
-49.638
-52.386
-54.872
-57.103
-59.086
-60.831
-62.347
-63.645
-64.734
-65.627
-66.334
-66.867
-67.237
-67.457
-67.537
-67.491
-67.329
-67.063
-66.704
-66.264
-65.753
-65.182
-64.559
-63.896
-63.199
-62.477
-61.738
-60.987
-60.231
-59.475
-58.725
-57.985
-57.26
-56.554
-55.87
-55.213
-54.584
-53.987
-53.426
-52.902
-52.418
-51.977
-51.581
-51.232
-50.932
-50.682
-50.486
-50.344
-50.257
-50.226
-50.252
-50.336
-50.476
-50.673
-50.927
-51.236
-51.601
-52.02
-52.492
-53.015
-53.589
-54.21
-54.876
-55.586
-56.335
-57.12
-57.937
-58.783
-59.652
-60.539
-61.439
-62.345
-63.252
-64.152
-65.038
-65.904
-66.74
-67.541
-68.297
-69.002
-69.647
-70.226
-70.731
-71.155
-71.492
-71.735
-71.878
-71.916
-71.844
-71.657
-71.352
-70.926
-70.376
-69.7
-68.897
-67.966
-66.909
-65.725
-64.416
-62.986
-61.438
-59.776
-58.006
-56.135
-54.169
-52.118
-49.989
-47.794
-45.542
-43.244
-40.912
-38.56
-36.199
-33.843
-31.507
-29.205
-26.952
-24.764
-22.656
-20.643
-18.741
-16.965
-15.329
-13.847
-12.532
-11.396
-10.45
-9.704
-9.169
-8.854
-8.768
-8.916
-9.303
-9.935
-10.815
-11.949
-13.335
-14.967
-16.839
-18.943
-21.275
-23.832
-26.605
-29.579
-32.735
-36.057
-39.526
-43.118
-46.802
-50.529
-54.246
-57.902
-61.453
-64.868
-68.109
-71.138
-73.908
-76.373
-78.506
-80.285
-81.702
-82.744
-83.401
-83.687
-83.647
-83.376
-82.999
-82.631
-82.372
-82.305
-82.49
-83.004
-83.956
-85.428
-87.486
-90.19
-93.524
-97.546
-102.394
-108.003
-114.114
-120.262
-125.667
-129.596
-131.543
-130.828
-126.729
-119.085
-108.13
-94.773
-80.804
-67.831
-57.143
-50.18
-47.988
-50.467
-56.539
-63.761
-68.445
-66.519
-53.638
-25.847
20.289
84.518
162.167
250.484
346.75
449.981
563.156
675.629
767.147
818.457
808.736
739.166
627.339
487.382
334.736
170.441
-6.228
-180.837
-336.496
-449.506
-508.83
-526.358
-515.601
-493.437
-468.26
-433.661
-388.928
-336.755
-281.032
-230.359
-188.898
-156.276
-132.519
-117.171
-108.229
-103.421
-100.579
-97.175
-92.134
-85.793
-77.886
-67.739
-55.657
-42.428
-29.159
-17.592
-8.542
-1.891
2.247
3.746
2.734
-0.558
-5.492
-10.979
-16.301
-21.144
-25.24
-28.455
-30.642
-31.598
-31.291
-29.859
-27.407
-24.018
-19.755
-14.638
-8.74
-2.211
4.78
12.047
19.413
26.758
33.987
41.007
47.752
54.17
60.235
65.955
71.352
76.444
81.249
85.791
90.095
94.207
98.18
102.071
105.939
109.824
113.751
117.74
121.799
125.931
130.133
134.389
138.678
142.982
147.286
151.573
155.83
160.037
164.172
168.212
172.135
175.916
179.537
182.978
186.219
189.243
192.032
194.572
196.847
198.844
200.546
201.939
203.004
203.729
204.099
204.104
203.732
202.974
201.825
200.279
198.337
195.997
193.264
190.141
186.636
182.757
178.517
173.928
169.004
163.763
158.222
152.401
146.319
140
133.465
126.739
119.845
112.809
105.657
98.415
91.109
83.765
76.411
69.071
61.773
54.54
47.397
40.369
33.476
26.74
20.182
13.819
7.668
1.743
-3.943
-9.378
-14.553
-19.462
-24.098
-28.458
-32.538
-36.338
-39.859
-43.101
-46.068
-48.764
-51.194
-53.365
-55.283
-56.957
-58.397
-59.611
-60.611
-61.407
-62.011
-62.435
-62.689
-62.788
-62.742
-62.564
-62.267
-61.863
-61.363
-60.779
-60.121
-59.401
-58.629
-57.813
-56.962
-56.083
-55.185
-54.274
-53.355
-52.436
-51.52
-50.614
-49.721
-48.845
-47.989
-47.157
-46.351
-45.573
-44.826
-44.111
-43.429
-42.783
-42.173
-41.601
-41.067
-40.572
-40.118
-39.705
-39.334
-39.004
-38.717
-38.473
-38.272
-38.115
-38.003
-37.936
-37.915
-37.94
-38.012
-38.13
-38.296
-38.508
-38.767
-39.071
-39.421
-39.814
-40.251
-40.729
-41.247
-41.804
-42.396
-43.021
-43.676
-44.357
-45.06
-45.782
-46.516
-47.258
-48.002
-48.743
-49.474
-50.189
-50.882
-51.545
-52.172
-52.756
-53.289
-53.765
-54.176
-54.516
-54.778
-54.957
-55.046
-55.039
-54.933
-54.723
-54.405
-53.976
-53.432
-52.772
-51.994
-51.096
-50.079
-48.943
-47.69
-46.321
-44.841
-43.252
-41.561
-39.772
-37.892
-35.93
-33.892
-31.789
-29.631
-27.429
-25.194
-22.938
-20.676
-18.42
-16.185
-13.984
-11.832
-9.744
-7.736
-5.823
-4.02
-2.344
-0.808
0.572
1.782
2.811
3.647
4.281
4.705
4.91
4.888
4.633
4.138
3.398
2.412
1.177
-0.306
-2.027
-3.977
-6.146
-8.521
-11.101
-13.882
-16.851
-19.998
-23.311
-26.77
-30.358
-34.041
-37.766
-41.486
-45.156
-48.732
-52.192
-55.505
-58.636
-61.552
-64.2
-66.532
-68.525
-70.147
-71.364
-72.167
-72.568
-72.629
-72.47
-72.208
-71.933
-71.713
-71.599
-71.681
-72.071
-72.872
-74.211
-76.157
-78.809
-82.383
-86.935
-92.324
-98.21
-103.89
-108.648
-112.038
-113.414
-111.979
-107.573
-100.397
-91.313
-82.252
-74.653
-69.308
-67.535
-70.497
-78.125
-89.664
-102.623
-112.504
-115.972
-110.128
-90.795
-54.205
2.182
77.773
167.028
262.552
359.998
461.488
570.338
682.49
784.134
848.722
851.929
788.253
665.18
504.914
329.444
144.332
-42.13
-219.092
-373.324
-480.849
-534.366
-545.488
-527.18
-498.435
-467.289
-427.606
-379.657
-325.625
-269.663
-220.795
-182.697
-155.393
-139.311
-132.436
-131.409
-132.986
-133.867
-131.977
-126.968
-118.716
-106.607
-90.736
-72.161
-52.685
-34.544
-19.059
-6.469
3.16
9.635
12.913
13.139
10.923
7.349
3.175
-1.277
-5.813
-10.331
-14.631
-18.361
-21.278
-23.343
-24.538
-24.848
-24.252
-22.657
-20.04
-16.479
-12.085
-7.001
-1.365
4.752
11.289
18.159
25.261
32.45
39.573
46.543
53.307
59.826
66.074
72.02
77.649
82.988
88.086
92.99
97.736
102.339
106.804
111.15
115.406
119.603
123.779
127.953
132.128
136.311
140.501
144.695
148.885
153.048
157.153
161.174
165.092
168.889
172.551
176.058
179.39
182.528
185.451
188.142
190.583
192.757
194.647
196.238
197.516
198.47
199.091
199.37
199.297
198.863
198.062
196.887
195.334
193.402
191.088
188.395
185.326
181.887
178.086
173.932
169.437
164.613
159.477
154.044
148.333
142.362
136.151
129.723
123.101
116.306
109.363
102.296
95.13
87.891
80.603
73.292
65.984
58.704
51.478
44.328
37.279
30.353
23.572
16.954
10.518
4.283
-1.737
-7.528
-13.077
-18.373
-23.407
-28.173
-32.664
-36.878
-40.812
-44.466
-47.841
-50.941
-53.768
-56.328
-58.628
-60.675
-62.476
-64.041
-65.38
-66.503
-67.422
-68.148
-68.695
-69.074
-69.299
-69.382
-69.337
-69.175
-68.909
-68.552
-68.113
-67.606
-67.039
-66.424
-65.77
-65.086
-64.38
-63.661
-62.935
-62.208
-61.486
-60.772
-60.071
-59.386
-58.72
-58.074
-57.451
-56.853
-56.28
-55.734
-55.216
-54.726
-54.264
-53.829
-53.423
-53.044
-52.692
-52.368
-52.072
-51.804
-51.564
-51.354
-51.174
-51.025
-50.907
-50.822
-50.769
-50.75
-50.765
-50.815
-50.901
-51.023
-51.184
-51.383
-51.623
-51.903
-52.223
-52.585
-52.986
-53.427
-53.905
-54.42
-54.969
-55.55
-56.161
-56.797
-57.455
-58.131
-58.819
-59.514
-60.21
-60.9
-61.576
-62.231
-62.856
-63.445
-63.987
-64.477
-64.905
-65.264
-65.546
-65.742
-65.846
-65.85
-65.745
-65.526
-65.187
-64.722
-64.127
-63.398
-62.533
-61.529
-60.387
-59.105
-57.686
-56.13
-54.439
-52.619
-50.672
-48.607
-46.43
-44.149
-41.773
-39.315
-36.785
-34.197
-31.563
-28.899
-26.218
-23.536
-20.87
-18.237
-15.652
-13.133
-10.697
-8.365
-6.155
-4.086
-2.175
-0.441
1.1
2.431
3.539
4.411
5.038
5.413
5.527
5.374
4.948
4.242
3.257
1.99
0.444
-1.378
-3.467
-5.807
-8.384
-11.178
-14.177
-17.373
-20.756
-24.312
-28.027
-31.883
-35.86
-39.927
-44.044
-48.159
-52.222
-56.184
-60.008
-63.666
-67.123
-70.347
-73.299
-75.926
-78.189
-80.054
-81.485
-82.451
-82.954
-83.028
-82.745
-82.219
-81.538
-80.764
-79.969
-79.23
-78.648
-78.343
-78.431
-78.988
-80.129
-82.056
-84.857
-88.474
-92.61
-96.608
-99.778
-101.584
-101.419
-98.596
-92.844
-84.313
-73.796
-63.184
-54.339
-48.589
-47.357
-51.786
-61.99
-77.204
-95.24
-111.627
-121.709
-121.66
-106.915
-73.318
-18.821
57.552
152.652
257.463
365.534
471.967
572.739
668.97
751.792
803.92
810.26
754.558
638.394
482.014
305.321
130.749
-29.197
-175.585
-305.628
-415.768
-502.034
-557.986
-582.588
-579.431
-552.825
-507.939
-450.773
-387.594
-324.297
-265.519
-214.376
-172.009
-138.831
-115.651
-101.89
-95.406
-93.739
-94.282
-94.572
-93.545
-90.612
-84.625
-75.297
-63.25
-49.344
-35.039
-22.018
-10.997
-2.309
3.504
6.423
6.711
4.681
1.138
-2.954
-7.077
-10.851
-13.902
-16.106
-17.332
-17.443
-16.524
-14.696
-12.009
-8.531
-4.303
0.653
6.244
12.353
18.881
25.711
32.737
39.851
46.909
53.8
60.453
66.818
72.884
78.641
84.077
89.203
94.048
98.647
103.038
107.256
111.324
115.274
119.143
122.97
126.802
130.668
134.581
138.55
142.575
146.652
150.778
154.938
159.105
163.256
167.372
171.435
175.431
179.34
183.14
186.808
190.322
193.66
196.803
199.732
202.426
204.866
207.033
208.914
210.494
211.76
212.695
213.288
213.522
213.388
212.873
211.97
210.669
208.966
206.857
204.343
201.425
198.109
194.401
190.308
185.843
181.018
175.848
170.349
164.538
158.435
152.062
145.44
138.592
131.544
124.32
116.947
109.451
101.859
94.2
86.5
78.786
71.086
63.427
55.834
48.335
40.953
33.712
26.636
19.747
13.065
6.607
0.391
-5.568
-11.258
-16.667
-21.787
-26.611
-31.133
-35.35
-39.258
-42.858
-46.151
-49.14
-51.827
-54.22
-56.325
-58.149
-59.703
-60.996
-62.039
-62.844
-63.423
-63.789
-63.955
-63.936
-63.744
-63.396
-62.905
-62.286
-61.555
-60.726
-59.813
-58.83
-57.791
-56.709
-55.596
-54.462
-53.32
-52.179
-51.049
-49.939
-48.856
-47.809
-46.804
-45.847
-44.944
-44.098
-43.314
-42.595
-41.945
-41.364
-40.856
-40.423
-40.065
-39.784
-39.58
-39.453
-39.404
-39.431
-39.534
-39.71
-39.958
-40.277
-40.663
-41.114
-41.628
-42.201
-42.832
-43.515
-44.249
-45.028
-45.849
-46.708
-47.601
-48.522
-49.468
-50.433
-51.413
-52.404
-53.399
-54.394
-55.382
-56.358
-57.315
-58.247
-59.147
-60.007
-60.821
-61.582
-62.282
-62.916
-63.475
-63.954
-64.345
-64.644
-64.843
-64.938
-64.921
-64.789
-64.537
-64.163
-63.662
-63.034
-62.276
-61.388
-60.371
-59.225
-57.951
-56.552
-55.03
-53.389
-51.633
-49.769
-47.803
-45.743
-43.597
-41.374
-39.085
-36.742
-34.356
-31.939
-29.505
-27.067
-24.64
-22.239
-19.88
-17.578
-15.349
-13.211
-11.183
-9.28
-7.519
-5.917
-4.489
-3.251
-2.214
-1.39
-0.787
-0.414
-0.279
-0.389
-0.752
-1.37
-2.249
-3.391
-4.797
-6.466
-8.393
-10.563
-12.966
-15.588
-18.418
-21.454
-24.688
-28.102
-31.682
-35.412
-39.268
-43.224
-47.234
-51.236
-55.176
-59
-62.667
-66.151
-69.415
-72.421
-75.128
-77.483
-79.451
-81.016
-82.153
-82.844
-83.093
-82.931
-82.453
-81.801
-81.1
-80.451
-79.92
-79.561
-79.473
-79.765
-80.54
-81.924
-83.958
-86.702
-90.33
-94.834
-100.024
-105.549
-110.673
-114.618
-116.873
-116.757
-113.532
-107.14
-97.845
-86.406
-74.619
-63.984
-55.577
-51.013
-51.513
-56.834
-66.006
-76.735
-84.826
-86.608
-78.639
-56.296
-15.941
43.839
122.946
218.464
324.432
434.643
541.427
634.329
703.892
742.177
744.321
711.29
643.72
541.851
406.7
237.769
46.374
-146.104
-318.11
-444.971
-518.85
-551.111
-553.218
-540.969
-521.765
-489.483
-443.903
-387.876
-326.56
-269.834
-222.686
-185.442
-158.348
-140.956
-131.677
-128.47
-128.243
-127.572
-124.836
-119.836
-112.266
-101.542
-87.757
-71.642
-54.75
-39.202
-26.078
-15.541
-7.72
-2.751
-0.637
-1.212
-3.832
-7.432
-11.307
-15.122
-18.631
-21.665
-23.991
-25.355
-25.669
-25.018
-23.476
-21.078
-17.835
-13.728
-8.807
-3.191
2.996
9.632
16.605
23.815
31.149
38.466
45.641
52.587
59.242
65.584
71.604
77.292
82.651
87.703
92.483
97.031
101.387
105.581
109.642
113.605
117.506
121.391
125.292
129.228
133.207
137.229
141.293
145.392
149.514
153.637
157.736
161.792
165.785
169.701
173.522
177.226
180.793
184.197
187.42
190.443
193.247
195.813
198.121
200.156
201.901
203.345
204.475
205.274
205.731
205.831
205.564
204.921
203.893
202.473
200.657
198.444
195.834
192.831
189.44
185.667
181.522
177.015
172.16
166.97
161.463
155.655
149.566
143.217
136.629
129.827
122.833
115.673
108.372
100.956
93.452
85.886
78.285
70.676
63.086
55.542
48.069
40.692
33.435
26.321
19.372
12.607
6.046
-0.294
-6.399
-12.255
-17.849
-23.173
-28.217
-32.974
-37.44
-41.611
-45.486
-49.064
-52.347
-55.337
-58.037
-60.454
-62.594
-64.464
-66.072
-67.428
-68.543
-69.427
-70.093
-70.552
-70.82
-70.907
-70.829
-70.6
-70.232
-69.739
-69.135
-68.432
-67.645
-66.784
-65.862
-64.891
-63.881
-62.844
-61.788
-60.723
-59.658
-58.6
-57.557
-56.535
-55.541
-54.581
-53.659
-52.78
-51.948
-51.168
-50.442
-49.772
-49.161
-48.61
-48.12
-47.692
-47.325
-47.02
-46.776
-46.592
-46.468
-46.402
-46.394
-46.441
-46.542
-46.694
-46.897
-47.146
-47.44
-47.776
-48.151
-48.563
-49.008
-49.483
-49.984
-50.509
-51.052
-51.61
-52.177
-52.748
-53.319
-53.882
-54.433
-54.966
-55.474
-55.953
-56.396
-56.797
-57.15
-57.45
-57.69
-57.864
-57.967
-57.993
-57.936
-57.791
-57.553
-57.219
-56.783
-56.244
-55.597
-54.84
-53.97
-52.986
-51.888
-50.675
-49.347
-47.906
-46.354
-44.695
-42.934
-41.077
-39.13
-37.099
-34.995
-32.826
-30.602
-28.336
-26.036
-23.717
-21.391
-19.073
-16.777
-14.517
-12.308
-10.166
-8.108
-6.151
-4.314
-2.611
-1.06
0.323
1.52
2.519
3.308
3.876
4.215
4.316
4.169
3.767
3.103
2.173
0.975
-0.492
-2.227
-4.222
-6.465
-8.942
-11.637
-14.541
-17.654
-20.969
-24.475
-28.159
-32.005
-35.99
-40.084
-44.242
-48.407
-52.525
-56.542
-60.42
-64.128
-67.63
-70.89
-73.86
-76.476
-78.694
-80.476
-81.785
-82.595
-82.917
-82.79
-82.305
-81.593
-80.757
-79.877
-79.037
-78.334
-77.878
-77.793
-78.208
-79.199
-80.888
-83.487
-87.028
-91.39
-96.24
-100.891
-104.697
-107.25
-107.948
-106.089
-101.561
-94.548
-85.839
-77.294
-70.238
-65.293
-63.53
-65.765
-71.652
-80.427
-89.912
-95.775
-94.733
-84.546
-61.693
-23.078
32.484
105.899
193.753
287.027
381.08
473.102
561.173
648.007
724.905
774.594
781.197
729.868
623.905
480.327
317.483
152.486
-8.282
-159.224
-293.172
-400.552
-469.294
-501.568
-503.343
-483.35
-455.077
-419.783
-378.86
-336.969
-294.088
-254.635
-223.019
-198.439
-179.788
-165.631
-153.217
-140.865
-128.932
-117.005
-103.998
-90.152
-75.911
-61.558
-48.183
-36.386
-25.473
-15.519
-7.301
-0.95
3.353
5.551
6.171
5.434
3.147
-0.42
-4.704
-9.3
-13.733
-17.66
-20.961
-23.439
-24.874
-25.211
-24.485
-22.753
-20.104
-16.603
-12.295
-7.262
-1.619
4.519
11.057
17.901
24.955
32.102
39.191
46.108
52.797
59.223
65.371
71.229
76.785
82.047
87.06
91.86
96.48
100.947
105.274
109.484
113.609
117.684
121.748
125.823
129.92
134.039
138.179
142.335
146.499
150.654
154.77
158.821
162.787
166.652
170.4
174.013
177.469
180.748
183.83
186.698
189.336
191.729
193.858
195.711
197.275
198.538
199.492
200.127
200.434
200.401
200.022
199.288
198.193
196.734
194.906
192.709
190.143
187.214
183.926
180.287
176.306
171.995
167.366
162.434
157.215
151.725
145.982
140.005
133.815
127.431
120.874
114.165
107.326
100.379
93.347
86.251
79.114
71.958
64.807
57.682
50.605
43.599
36.683
29.879
23.206
16.683
10.327
4.156
-1.818
-7.579
-13.116
-18.419
-23.478
-28.288
-32.841
-37.135
-41.165
-44.931
-48.431
-51.666
-54.638
-57.35
-59.803
-62.003
-63.955
-65.663
-67.135
-68.378
-69.398
-70.205
-70.808
-71.215
-71.438
-71.486
-71.371
-71.103
-70.696
-70.161
-69.51
-68.754
-67.908
-66.981
-65.987
-64.935
-63.837
-62.704
-61.544
-60.368
-59.184
-58.001
-56.828
-55.67
-54.537
-53.435
-52.37
-51.348
-50.375
-49.457
-48.598
-47.804
-47.077
-46.423
-45.845
-45.345
-44.926
-44.589
-44.337
-44.168
-44.084
-44.084
-44.166
-44.329
-44.57
-44.887
-45.276
-45.734
-46.258
-46.843
-47.484
-48.178
-48.919
-49.701
-50.52
-51.37
-52.244
-53.136
-54.041
-54.95
-55.858
-56.756
-57.638
-58.496
-59.321
-60.105
-60.842
-61.523
-62.139
-62.685
-63.151
-63.533
-63.822
-64.014
-64.102
-64.08
-63.944
-63.69
-63.315
-62.815
-62.189
-61.435
-60.552
-59.54
-58.401
-57.136
-55.747
-54.238
-52.611
-50.873
-49.03
-47.087
-45.053
-42.935
-40.746
-38.494
-36.193
-33.854
-31.489
-29.113
-26.74
-24.385
-22.062
-19.786
-17.572
-15.437
-13.398
-11.475
-9.684
-8.042
-6.567
-5.274
-4.179
-3.295
-2.631
-2.194
-1.993
-2.035
-2.327
-2.875
-3.683
-4.755
-6.092
-7.695
-9.56
-11.677
-14.031
-16.606
-19.389
-22.373
-25.557
-28.931
-32.487
-36.211
-40.088
-44.095
-48.196
-52.341
-56.468
-60.513
-64.427
-68.167
-71.695
-74.969
-77.942
-80.552
-82.744
-84.479
-85.715
-86.421
-86.577
-86.198
-85.358
-84.165
-82.761
-81.266
-79.762
-78.349
-77.147
-76.285
-75.922
-76.213
-77.238
-79.118
-82.032
-85.954
-90.721
-95.961
-100.958
-105.096
-107.886
-108.64
-106.812
-102.397
-95.677
-87.527
-79.42
-72.224
-66.68
-64.04
-64.836
-68.582
-74.092
-78.75
-79.104
-72.815
-57.425
-28.898
15.499
76.7
154.811
244.688
339.648
437.398
532.175
619.702
696.781
749.09
767.925
747.643
681.282
577.491
439.981
270.186
80.719
-117.603
-300.672
-439.231
-520.485
-544.691
-530.012
-500.163
-467.476
-434.03
-394.115
-344.096
-287.435
-231.182
-182.92
-146.293
-121.792
-108.579
-104.06
-105.49
-109.822
-113.668
-115.277
-113.839
-108.393
-98.761
-85.463
-69.382
-52.377
-36.548
-22.919
-12.011
-4.278
0.312
1.907
0.768
-2.271
-6.195
-10.377
-14.391
-17.93
-20.899
-23.116
-24.391
-24.718
-24.152
-22.734
-20.503
-17.453
-13.564
-8.896
-3.548
2.367
8.707
15.346
22.164
29.026
35.819
42.451
48.844
54.959
60.774
66.277
71.471
76.368
80.983
85.347
89.496
93.46
97.284
101.007
104.67
108.324
112.003
115.728
119.517
123.373
127.294
131.278
135.313
139.38
143.46
147.536
151.59
155.606
159.568
163.453
167.241
170.907
174.431
177.791
180.97
183.948
186.705
189.223
191.486
193.48
195.19
196.601
197.695
198.458
198.876
198.937
198.63
197.944
196.872
195.408
193.549
191.296
188.649
185.612
182.189
178.39
174.224
169.703
164.839
159.649
154.148
148.355
142.289
135.973
129.427
122.675
115.741
108.65
101.427
94.099
86.691
79.231
71.743
64.255
56.792
49.38
42.043
34.804
27.687
20.713
13.903
7.275
0.847
-5.365
-11.347
-17.086
-22.571
-27.793
-32.745
-37.419
-41.813
-45.922
-49.745
-53.282
-56.534
-59.502
-62.191
-64.606
-66.751
-68.635
-70.264
-71.648
-72.796
-73.718
-74.425
-74.928
-75.239
-75.37
-75.331
-75.136
-74.796
-74.324
-73.732
-73.032
-72.235
-71.353
-70.397
-69.378
-68.306
-67.191
-66.042
-64.868
-63.679
-62.481
-61.282
-60.091
-58.913
-57.756
-56.625
-55.527
-54.466
-53.447
-52.475
-51.554
-50.686
-49.876
-49.127
-48.441
-47.821
-47.269
-46.787
-46.376
-46.038
-45.774
-45.584
-45.469
-45.427
-45.459
-45.564
-45.741
-45.989
-46.307
-46.693
-47.145
-47.66
-48.236
-48.87
-49.558
-50.296
-51.08
-51.905
-52.766
-53.658
-54.576
-55.513
-56.463
-57.42
-58.376
-59.323
-60.256
-61.164
-62.041
-62.879
-63.668
-64.403
-65.075
-65.677
-66.202
-66.643
-66.993
-67.247
-67.398
-67.441
-67.371
-67.182
-66.87
-66.433
-65.867
-65.172
-64.345
-63.386
-62.295
-61.075
-59.727
-58.254
-56.659
-54.947
-53.123
-51.195
-49.171
-47.059
-44.868
-42.61
-40.294
-37.935
-35.543
-33.132
-30.713
-28.302
-25.913
-23.558
-21.254
-19.012
-16.85
-14.783
-12.829
-11.003
-9.32
-7.798
-6.45
-5.292
-4.337
-3.592
-3.068
-2.77
-2.705
-2.879
-3.298
-3.966
-4.884
-6.054
-7.474
-9.143
-11.051
-13.184
-15.527
-18.062
-20.78
-23.678
-26.748
-29.981
-33.367
-36.891
-40.534
-44.273
-48.066
-51.859
-55.599
-59.232
-62.719
-66.032
-69.137
-72.005
-74.588
-76.828
-78.686
-80.131
-81.128
-81.654
-81.708
-81.326
-80.594
-79.643
-78.585
-77.508
-76.495
-75.637
-75.041
-74.82
-75.108
-76.001
-77.615
-80.165
-83.705
-88.119
-93.094
-97.99
-102.129
-104.994
-105.879
-103.95
-99.003
-91.297
-81.756
-72.309
-64.482
-59.281
-58.196
-62.498
-72.134
-86.119
-101.69
-114.177
-119.937
-115.378
-95.76
-57.533
1.572
80.525
172.848
273.119
378.157
486.422
599.756
708.322
792.774
834.934
816.346
739.191
622.835
483.116
333.342
174.225
0.251
-179.713
-343.124
-463.714
-524.207
-528.105
-497.899
-457.372
-420.374
-388.841
-355.829
-317.442
-275.676
-235.072
-200.868
-174.701
-155.291
-141.559
-132.016
-124.836
-118.538
-111.397
-102.595
-92.519
-81.597
-69.85
-57.092
-43.566
-30.098
-18.021
-8.2
-0.726
4.506
7.591
8.416
6.97
3.709
-0.516
-4.991
-9.297
-13.181
-16.535
-19.137
-20.736
-21.26
-20.759
-19.32
-17.021
-13.882
-9.892
-5.106
0.373
6.424
12.89
19.648
26.585
33.56
40.465
47.203
53.7
59.927
65.873
71.53
76.903
82.008
86.861
91.491
95.934
100.216
104.378
108.46
112.5
116.548
120.636
124.782
129
133.289
137.643
142.053
146.507
150.98
155.452
159.902
164.31
168.658
172.927
177.094
181.133
185.018
188.725
192.233
195.522
198.569
201.357
203.865
206.078
207.983
209.565
210.81
211.702
212.227
212.374
212.132
211.492
210.446
208.989
207.118
204.833
202.138
199.035
195.533
191.639
187.364
182.721
177.724
172.389
166.733
160.777
154.542
148.049
141.322
134.388
127.27
119.995
112.589
105.081
97.496
89.862
82.205
74.554
66.934
59.371
51.891
44.517
37.274
30.183
23.265
16.54
10.024
3.735
-2.315
-8.111
-13.644
-18.903
-23.882
-28.573
-32.973
-37.079
-40.89
-44.407
-47.632
-50.568
-53.221
-55.597
-57.703
-59.548
-61.141
-62.491
-63.611
-64.511
-65.203
-65.7
-66.016
-66.162
-66.153
-66.002
-65.722
-65.326
-64.826
-64.235
-63.565
-62.828
-62.034
-61.195
-60.321
-59.423
-58.51
-57.59
-56.672
-55.762
-54.867
-53.993
-53.145
-52.326
-51.542
-50.793
-50.085
-49.418
-48.794
-48.215
-47.681
-47.193
-46.751
-46.355
-46.005
-45.7
-45.441
-45.226
-45.056
-44.931
-44.851
-44.814
-44.822
-44.874
-44.968
-45.104
-45.282
-45.499
-45.755
-46.049
-46.381
-46.748
-47.151
-47.589
-48.062
-48.567
-49.104
-49.673
-50.27
-50.896
-51.547
-52.221
-52.917
-53.632
-54.363
-55.106
-55.857
-56.612
-57.365
-58.111
-58.843
-59.554
-60.237
-60.885
-61.491
-62.047
-62.546
-62.981
-63.346
-63.634
-63.838
-63.953
-63.97
-63.885
-63.691
-63.383
-62.956
-62.405
-61.728
-60.92
-59.981
-58.907
-57.699
-56.357
-54.881
-53.272
-51.533
-49.669
-47.684
-45.586
-43.382
-41.081
-38.694
-36.234
-33.713
-31.145
-28.544
-25.924
-23.302
-20.692
-18.113
-15.578
-13.106
-10.713
-8.417
-6.236
-4.191
-2.299
-0.579
0.952
2.276
3.377
4.24
4.855
5.213
5.305
5.124
4.663
3.917
2.882
1.557
-0.06
-1.966
-4.156
-6.617
-9.333
-12.285
-15.454
-18.826
-22.391
-26.138
-30.054
-34.128
-38.344
-42.681
-47.106
-51.572
-56.023
-60.4
-64.65
-68.727
-72.588
-76.192
-79.501
-82.466
-85.041
-87.191
-88.866
-90.026
-90.643
-90.722
-90.315
-89.514
-88.436
-87.187
-85.856
-84.539
-83.365
-82.461
-81.955
-81.989
-82.616
-83.954
-86.242
-89.519
-93.658
-98.322
-102.765
-106.234
-108.217
-108.013
-104.878
-98.713
-89.749
-78.93
-68.307
-59.663
-54.337
-53.833
-59.032
-69.441
-83.731
-99.088
-110.797
-113.931
-104.041
-76.835
-28.831
38.998
124.074
224.981
335.369
452.215
572.238
678.954
759.207
799.084
785.853
728.954
638.607
522.619
387.922
226.916
39.743
-158.483
-342.332
-479.881
-554.249
-570.782
-550.95
-518.928
-487.772
-457.524
-421.128
-375.219
-322.994
-270.755
-225.201
-188.907
-161.612
-143.13
-131.816
-125.396
-121.435
-117.15
-111.122
-103.312
-93.593
-81.507
-67.152
-51.185
-34.991
-20.481
-8.669
0.291
6.323
9.345
9.418
6.762
2.042
-3.676
-9.667
-15.559
-21.045
-25.895
-29.866
-32.702
-34.312
-34.784
-34.176
-32.511
-29.81
-26.072
-21.367
-15.837
-9.625
-2.875
4.277
11.71
19.283
26.828
34.216
41.36
48.201
54.72
60.904
66.736
72.224
77.396
82.288
86.942
91.4
95.691
99.852
103.923
107.945
111.969
116.026
120.13
124.291
128.504
132.764
137.068
141.397
145.725
150.03
154.29
158.487
162.607
166.633
170.539
174.306
177.91
181.331
184.551
187.552
190.313
192.816
195.046
196.987
198.627
199.952
200.948
201.6
201.896
201.824
201.375
200.538
199.308
197.678
195.648
193.216
190.387
187.163
183.552
179.561
175.202
170.485
165.425
160.036
154.335
148.341
142.071
135.549
128.795
121.832
114.685
107.379
99.94
92.394
84.769
77.091
69.388
61.688
54.017
46.402
38.87
31.444
24.149
17.009
10.044
3.275
-3.279
-9.603
-15.681
-21.5
-27.048
-32.317
-37.298
-41.985
-46.375
-50.462
-54.247
-57.728
-60.908
-63.788
-66.373
-68.668
-70.68
-72.416
-73.885
-75.098
-76.065
-76.798
-77.309
-77.612
-77.721
-77.648
-77.409
-77.017
-76.488
-75.835
-75.073
-74.216
-73.278
-72.271
-71.208
-70.1
-68.961
-67.799
-66.626
-65.45
-64.281
-63.127
-61.995
-60.892
-59.827
-58.804
-57.829
-56.908
-56.045
-55.243
-54.508
-53.84
-53.243
-52.718
-52.267
-51.89
-51.589
-51.363
-51.211
-51.134
-51.128
-51.194
-51.329
-51.53
-51.796
-52.123
-52.509
-52.951
-53.446
-53.991
-54.582
-55.216
-55.89
-56.599
-57.339
-58.107
-58.897
-59.704
-60.524
-61.35
-62.177
-62.999
-63.81
-64.603
-65.372
-66.109
-66.809
-67.463
-68.065
-68.608
-69.087
-69.495
-69.825
-70.074
-70.234
-70.303
-70.275
-70.146
-69.912
-69.57
-69.116
-68.549
-67.866
-67.067
-66.15
-65.116
-63.965
-62.699
-61.319
-59.829
-58.232
-56.533
-54.736
-52.85
-50.881
-48.837
-46.729
-44.567
-42.362
-40.128
-37.875
-35.617
-33.367
-31.139
-28.948
-26.807
-24.73
-22.731
-20.824
-19.025
-17.352
-15.818
-14.439
-13.23
-12.206
-11.379
-10.762
-10.362
-10.187
-10.243
-10.536
-11.07
-11.851
-12.882
-14.165
-15.699
-17.484
-19.514
-21.778
-24.261
-26.946
-29.814
-32.854
-36.059
-39.417
-42.92
-46.556
-50.312
-54.167
-58.091
-62.042
-65.966
-69.811
-73.528
-77.078
-80.426
-83.538
-86.381
-88.911
-91.088
-92.876
-94.233
-95.122
-95.519
-95.43
-94.908
-94.04
-92.938
-91.701
-90.408
-89.146
-88.03
-87.176
-86.695
-86.712
-87.277
-88.506
-90.634
-93.702
-97.571
-101.899
-105.988
-109.152
-110.928
-110.672
-107.652
-101.747
-93.258
-83.171
-73.413
-65.616
-60.977
-60.838
-66.109
-76.442
-90.446
-105.26
-116.655
-120.284
-111.708
-86.878
-42.486
21.194
99.52
189.26
287.3
392.138
505.979
618.578
710.514
763.448
757.982
695.18
591.309
459.435
314.003
156.051
-14.608
-183.782
-335.553
-447.557
-509.126
-531.4
-527.614
-513.988
-498.159
-473.823
-438.358
-392.483
-340.482
-290.991
-248.484
-213.642
-186.13
-165.043
-150.373
-141.445
-136.294
-132.894
-129.26
-124.466
-118.614
-111.29
-101.689
-89.83
-76.324
-62.257
-49.245
-38.085
-28.792
-21.563
-16.62
-13.947
-13.407
-14.472
-16.239
-18.173
-20.078
-21.78
-23.184
-24.15
-24.472
-24.064
-22.993
-21.301
-19.003
-16.113
-12.608
-8.516
-3.927
1.062
6.375
11.952
17.76
23.77
29.924
36.154
42.389
48.547
54.574
60.435
66.106
71.578
76.856
81.948
86.88
91.69
96.406
101.046
105.622
110.13
114.578
118.979
123.352
127.72
132.102
136.501
140.919
145.353
149.789
154.216
158.61
162.941
167.183
171.311
175.304
179.146
182.817
186.296
189.562
192.592
195.363
197.857
200.055
201.939
203.493
204.703
205.558
206.052
206.177
205.926
205.294
204.276
202.867
201.068
198.878
196.299
193.335
189.992
186.28
182.21
177.795
173.049
167.989
162.634
157.001
151.112
144.99
138.656
132.135
125.45
118.627
111.691
104.667
97.581
90.458
83.323
76.201
69.115
62.09
55.148
48.312
41.604
35.044
28.652
22.445
16.443
10.659
5.109
-0.194
-5.24
-10.018
-14.52
-18.738
-22.669
-26.308
-29.652
-32.701
-35.454
-37.914
-40.081
-41.962
-43.562
-44.887
-45.943
-46.74
-47.287
-47.593
-47.671
-47.531
-47.187
-46.655
-45.949
-45.086
-44.081
-42.952
-41.713
-40.382
-38.974
-37.501
-35.975
-34.412
-32.825
-31.23
-29.642
-28.074
-26.541
-25.058
-23.639
-22.302
-21.058
-19.916
-18.887
-17.981
-17.212
-16.597
-16.147
-15.861
-15.738
-15.77
-15.944
-16.243
-16.638
-17.087
-17.545
-17.975
-18.345
-18.633
-18.81
-18.838
-18.676
-18.285
-17.65
-16.773
-15.666
-14.346
-12.845
-11.212
-9.52
-7.869
-6.343
-5.004
-3.892
